0.000000000000000000e+00,-5.973000000000000011e-03,-4.379000000000000080e-03,-6.755999999999999853e-03,-1.741300000000000139e-02,-1.371700000000000003e-02,-1.992400000000000074e-02,-5.366000000000000110e-03,-1.808200000000000085e-02,-1.613900000000000057e-02,-2.302200000000000080e-02,-1.101199999999999922e-02,-1.487800000000000060e-02,-9.542999999999999400e-03,-8.566999999999999962e-03,-1.473600000000000083e-02,-1.168800000000000047e-02,-8.809999999999999472e-04,-2.103700000000000014e-02,-1.369599999999999984e-02,-5.811000000000000193e-03,-5.351999999999999987e-03,-1.239099999999999924e-02,-7.466999999999999679e-03,-1.300199999999999967e-02,-1.407599999999999997e-02,-9.268999999999999462e-03,-6.377999999999999989e-03,-1.874999999999999931e-03,-1.787400000000000100e-02,-5.008000000000000299e-03,-2.935999999999999808e-03,-1.374900000000000080e-02,-6.001000000000000258e-03,-1.082600000000000055e-02,-8.182999999999999302e-03,-6.047000000000000292e-03,4.560000000000000251e-04,-9.346999999999999406e-03,-1.252799999999999921e-02,-7.132000000000000318e-03,-1.036100000000000042e-02,-4.205000000000000404e-03,-5.645999999999999977e-03,-4.373000000000000151e-03,-1.076700000000000053e-02,-1.448699999999999988e-02,-2.369399999999999978e-02,-9.735999999999999863e-03,-9.291999999999999912e-03,-1.593000000000000015e-03,-8.744000000000000036e-03,-1.175099999999999929e-02,-1.558700000000000016e-02,-3.519999999999999908e-04,-1.568200000000000149e-02,-4.200999999999999873e-03,-7.015999999999999667e-03,-7.237999999999999642e-03,-7.549000000000000155e-03,-1.439400000000000054e-02,-5.472000000000000301e-03,-1.283100000000000039e-02,-4.141999999999999849e-03,-1.059399999999999925e-02,-7.189000000000000078e-03,-1.634000000000000036e-02,-8.724000000000000851e-03,-1.121199999999999974e-02,-6.430000000000000169e-04,-1.314300000000000017e-02,-1.533299999999999941e-02,-4.263000000000000296e-03,3.910000000000000172e-04,-1.329299999999999926e-02,-9.211999999999999703e-03,-8.354000000000000314e-03,-5.124000000000000082e-03,-4.434999999999999706e-03,-8.887000000000000802e-03,-1.525000000000000097e-03,-8.342999999999999722e-03,-7.386000000000000204e-03,-6.138000000000000227e-03,-7.629999999999999630e-03,-8.495000000000000814e-03,-1.477499999999999994e-02,-2.341999999999999898e-03,-1.780699999999999991e-02,-1.528799999999999951e-02,-1.322800000000000017e-02,-1.637100000000000014e-02,-8.656999999999999765e-03,-1.363900000000000008e-02,-1.291999999999999963e-03,-1.420800000000000014e-02,-1.491699999999999970e-02,-1.437199999999999936e-02,-9.971000000000000696e-03,-2.111899999999999888e-02,-6.788999999999999896e-03,6.989999999999999686e-04,-4.801999999999999845e-03,-7.707000000000000309e-03,-1.603299999999999864e-02,-6.071000000000000008e-03,-1.862000000000000113e-02,-1.642000000000000013e-03,-8.651999999999999968e-03,-2.031600000000000072e-02,-1.422299999999999953e-02,-5.066000000000000190e-03,-1.603200000000000111e-02,-4.373000000000000151e-03,-9.735999999999999863e-03,-1.270400000000000001e-02,-1.768000000000000127e-02,-6.071000000000000008e-03,-7.235000000000000112e-03,-1.194300000000000049e-02,-1.436800000000000056e-02,-4.738000000000000024e-03,-7.887999999999999179e-03,-3.859000000000000017e-03,-8.616999999999999660e-03,-3.935000000000000130e-03,-1.141499999999999980e-02,-8.514000000000000734e-03,-4.426000000000000247e-03,-1.013999999999999971e-02,-7.309999999999999658e-03,-1.411699999999999934e-02,-1.012900000000000085e-02,-2.870999999999999854e-03,-1.506200000000000074e-02,-5.185000000000000372e-03,-1.352599999999999983e-02,-1.519900000000000070e-02,-1.623399999999999843e-02,-8.758999999999999425e-03,-1.398600000000000017e-02,-1.247200000000000045e-02,-1.161700000000000059e-02,-1.307999999999999961e-02,-1.881000000000000076e-03,-1.152000000000000073e-02,-5.768999999999999823e-03,-1.277200000000000037e-02,-1.684599999999999986e-02,-1.838100000000000150e-02,-4.545000000000000429e-03,-1.635400000000000048e-02,-7.941999999999999407e-03,-1.298700000000000028e-02,-2.110199999999999923e-02,-2.018400000000000055e-02,-1.269999999999999948e-02,-5.904000000000000394e-03,-9.740000000000000394e-03,-1.359800000000000071e-02,-6.377999999999999989e-03,-1.472900000000000077e-02,-3.503000000000000037e-03,-1.441699999999999926e-02,-1.533600000000000067e-02,-5.096999999999999968e-03,-1.085000000000000027e-02,-1.407599999999999997e-02,-1.575899999999999870e-02,-1.037199999999999928e-02,-1.968800000000000064e-02,-2.146100000000000091e-02,-1.472900000000000077e-02,-8.691000000000000808e-03,-9.017000000000000709e-03,-1.170200000000000060e-02,-1.126899999999999950e-02,-9.513000000000000622e-03,-1.788999999999999965e-02,-1.615099999999999869e-02,-1.232399999999999989e-02,-1.199599999999999972e-02,-2.122500000000000081e-02,-6.467999999999999791e-03,-6.369999999999999794e-03,-7.444000000000000096e-03,-1.246700000000000065e-02,-1.196200000000000041e-02,-8.737999999999999240e-03,-3.833000000000000036e-03,-5.257999999999999653e-03,-8.108000000000000623e-03,-1.265299999999999932e-02,-1.483899999999999976e-02,-1.681099999999999955e-02,-1.176199999999999989e-02,-1.143199999999999945e-02,-8.606000000000000802e-03,-1.257400000000000011e-02,-1.608499999999999860e-02,-1.251999999999999988e-02,-6.778000000000000171e-03,-1.538699999999999964e-02,-1.624400000000000149e-02,-1.146699999999999976e-02,-1.554900000000000032e-02,-1.454300000000000037e-02,-1.118000000000000070e-02,-4.218999999999999660e-03,-1.123900000000000073e-02,-1.197999999999999933e-02,-1.560100000000000028e-02,-5.096999999999999968e-03,-1.062899999999999956e-02,-1.538699999999999964e-02,-1.373300000000000042e-02,-5.981000000000000205e-03,-1.355600000000000034e-02,-1.153500000000000011e-02,-7.640000000000000090e-03,-9.067000000000000406e-03,-6.767999999999999711e-03,-1.668700000000000044e-02,-1.430999999999999980e-02,-1.137799999999999923e-02,-9.827000000000000665e-03,-1.013900000000000044e-02,-8.113000000000000420e-03,-6.001000000000000258e-03,-6.102999999999999918e-03,-1.791099999999999984e-02,-9.598999999999999894e-03,-6.531000000000000347e-03,-7.786999999999999651e-03,-1.703899999999999859e-02,-1.047799999999999947e-02,-1.359100000000000065e-02,-1.580399999999999860e-02,-8.656999999999999765e-03,-1.786000000000000087e-02,-1.385300000000000073e-02,-2.019400000000000014e-02,-1.336399999999999914e-02,-1.655500000000000027e-02,-2.109600000000000017e-02,-4.406000000000000194e-03,-5.890000000000000270e-03,-1.454399999999999964e-02,-1.251999999999999988e-02,-1.021400000000000086e-02,-1.532999999999999988e-02,-4.200999999999999873e-03,-1.822000000000000008e-02,-1.439799999999999934e-02,-1.170900000000000066e-02,-8.510999999999999469e-03,-8.980999999999999400e-03,-1.248100000000000077e-02,-5.493999999999999752e-03,-6.453000000000000402e-03,-2.275900000000000145e-02,-8.023000000000000617e-03,-1.533299999999999941e-02,-1.749099999999999960e-02,-1.762999999999999984e-02,-1.601199999999999846e-02,-1.383200000000000054e-02,-1.847899999999999890e-02,-1.870600000000000041e-02,-1.516200000000000013e-02,-1.227400000000000019e-02,-1.278900000000000002e-02,-9.119999999999999635e-03,-9.896999999999999548e-03,-1.299499999999999961e-02,-1.239499999999999977e-02,-1.020599999999999979e-02,-9.277999999999999789e-03,-1.811000000000000110e-02,-7.561000000000000013e-03,-1.376899999999999999e-02,-2.206199999999999828e-02,-1.355199999999999981e-02,-1.086100000000000086e-02,-7.549000000000000155e-03,-1.262100000000000027e-02,-1.687999999999999917e-02,-1.191900000000000077e-02,-1.448699999999999988e-02,-1.426900000000000043e-02,-1.031800000000000078e-02,-1.366999999999999986e-02,-9.067000000000000406e-03,-1.174900000000000076e-02,-2.289800000000000169e-02,-1.661400000000000030e-02,-1.188400000000000047e-02,-1.450500000000000053e-02,-1.795199999999999921e-02,-1.901999999999999871e-02,-2.761500000000000066e-02,-1.896700000000000122e-02,-7.334000000000000241e-03,-2.050300000000000039e-02,-1.104499999999999926e-02,-1.131899999999999920e-02,-1.420399999999999961e-02,-1.270300000000000075e-02,-1.195399999999999935e-02,-1.408200000000000077e-02,-1.734399999999999831e-02,-2.051400000000000098e-02,-3.265999999999999806e-03,-3.429999999999999889e-03,-1.486200000000000021e-02,-1.122000000000000081e-02,-1.355199999999999981e-02,-8.264999999999999777e-03,-1.718799999999999842e-02,-1.420399999999999961e-02,-1.898499999999999840e-02,-1.654900000000000121e-02,-1.167999999999999941e-02,-8.250000000000000389e-03,-1.237500000000000058e-02,1.363999999999999978e-03,-1.617800000000000141e-02,-4.700000000000000185e-03,-1.283499999999999919e-02,-1.703899999999999859e-02,-1.535300000000000033e-02,-1.587399999999999922e-02,-9.584999999999999770e-03,-1.909500000000000086e-02,-1.059299999999999999e-02,-1.505800000000000020e-02,-3.099999999999999978e-02,-1.689600000000000130e-02,-1.365800000000000000e-02,-1.284399999999999951e-02,-1.666199999999999973e-02,-4.462999999999999953e-03,-1.212200000000000083e-02,-1.370099999999999964e-02,-1.335599999999999982e-02,-1.695500000000000132e-02,-1.562900000000000053e-02,-1.026900000000000035e-02,-1.894099999999999950e-02,-1.450599999999999980e-02,-1.283499999999999919e-02,-1.883999999999999911e-02,-1.368800000000000051e-02,-1.322100000000000011e-02,-3.008500000000000063e-02,-1.233500000000000048e-02,-1.744100000000000164e-02,-1.767699999999999827e-02,-2.028399999999999995e-02,-1.136200000000000057e-02,-9.740999999999999659e-03,-1.268599999999999936e-02,-2.586199999999999957e-02,-1.160600000000000000e-02,-8.333000000000000129e-03,-1.289799999999999974e-02,-1.967599999999999905e-02,-1.472500000000000024e-02,-1.416099999999999998e-02,-1.341000000000000004e-02,-1.355600000000000034e-02,-2.312200000000000019e-02,-1.907800000000000121e-02,-1.338199999999999980e-02,-1.620699999999999918e-02,-1.605799999999999936e-02,-9.988999999999999616e-03,-1.160600000000000000e-02,-1.279100000000000029e-02,-5.035000000000000413e-03,-1.420800000000000014e-02,-2.183799999999999977e-02,-1.715200000000000058e-02,-8.177999999999999506e-03,-1.979500000000000010e-02,-1.165000000000000063e-02,-1.893999999999999850e-02,-2.097999999999999865e-02,-6.361999999999999600e-03,-1.441699999999999926e-02,-1.217700000000000032e-02,-2.088399999999999979e-02,-1.448699999999999988e-02,-7.792000000000000315e-03,-1.853199999999999986e-02,-1.789999999999999925e-02,-2.193700000000000164e-02,-1.127900000000000083e-02,-1.356100000000000014e-02,-1.529100000000000077e-02,-1.326500000000000075e-02,-1.670999999999999916e-02,-1.302500000000000012e-02,-1.245399999999999979e-02,-1.277200000000000037e-02,-1.391399999999999929e-02,-1.641799999999999857e-02,-1.170200000000000060e-02,-1.164600000000000010e-02,-1.600000000000000033e-02,-1.250199999999999922e-02,-1.992199999999999874e-02,-2.369699999999999931e-02,-4.035000000000000392e-03,-1.640899999999999997e-02,-6.177000000000000199e-03,-1.260000000000000009e-02,-1.858900000000000136e-02,-1.814100000000000087e-02,-1.576699999999999977e-02,-1.834699999999999873e-02,-1.359800000000000071e-02,-9.513000000000000622e-03,-8.897999999999999660e-03,-1.035699999999999989e-02,-1.217200000000000053e-02,-1.345999999999999974e-02,-1.460099999999999940e-02,-2.731499999999999900e-02,-2.812900000000000122e-02,-1.872800000000000159e-02,-8.730999999999999178e-03,-2.064099999999999963e-02,-1.212899999999999916e-02,-1.454399999999999964e-02,-4.969000000000000326e-03,-1.261400000000000021e-02,-1.350799999999999917e-02,-1.495800000000000081e-02,-1.301500000000000053e-02,-9.506999999999999826e-03,-1.068400000000000079e-02,-1.416599999999999977e-02,-1.085000000000000027e-02,-2.193000000000000158e-02,-1.575899999999999870e-02,-1.693899999999999920e-02,-4.801999999999999845e-03,-5.904999999999999659e-03,-9.502000000000000030e-03,-1.221700000000000043e-02,-2.067300000000000040e-02,-1.613900000000000057e-02,-1.051999999999999984e-02,-2.241200000000000137e-02,-2.039799999999999947e-02,-1.146699999999999976e-02,-5.420999999999999604e-03,-1.117300000000000064e-02,-1.184999999999999942e-02,-9.277999999999999789e-03,-1.247200000000000045e-02,-4.035000000000000392e-03,-1.029700000000000060e-02,-1.207100000000000013e-02,-1.067300000000000020e-02,-2.123200000000000087e-02,-1.093700000000000054e-02,-1.317300000000000068e-02,-2.463800000000000018e-02,-1.919600000000000126e-02,-1.672299999999999828e-02,-1.454300000000000037e-02,-1.516200000000000013e-02,-1.828000000000000111e-02,-1.571499999999999980e-02,-1.674199999999999994e-02,-1.778000000000000067e-03,-9.426999999999999616e-03,-1.440699999999999967e-02,-1.046000000000000055e-02,-6.597999999999999698e-03,-1.670999999999999916e-02,-1.492899999999999956e-02,-2.241500000000000090e-02,-7.156000000000000034e-03,-1.486900000000000027e-02,-1.129600000000000048e-02,-1.454300000000000037e-02,-1.717300000000000076e-02,-1.179599999999999919e-02,-8.510999999999999469e-03,-6.309000000000000372e-03,-1.596399999999999902e-02,-1.061600000000000044e-02,-5.850000000000000165e-04,-1.288699999999999915e-02,-1.697200000000000097e-02,-2.228700000000000125e-02,-5.369999999999999774e-03,-2.160700000000000121e-02,-2.254700000000000107e-02,-1.743499999999999911e-02,-1.288699999999999915e-02,-1.468399999999999914e-02,-5.022999999999999687e-03,-2.109099999999999864e-02,-1.705500000000000071e-02,-1.730699999999999947e-02,-1.650899999999999937e-02,-1.074699999999999961e-02,-1.735199999999999937e-02,-1.822800000000000115e-02,-1.920000000000000049e-04,-1.644199999999999828e-02,-4.146000000000000379e-03,-2.540399999999999950e-02,3.539999999999999853e-04,-1.587399999999999922e-02,-1.009000000000000001e-02,-7.075999999999999825e-03,-2.121599999999999875e-02,-1.995299999999999851e-02,-9.974999999999999492e-03,-1.157299999999999995e-02,-1.210400000000000018e-02,-9.648999999999999591e-03,-2.027699999999999989e-02,-2.578300000000000036e-02,-1.693599999999999967e-02,-3.765999999999999816e-03,-1.535700000000000086e-02,-9.286000000000000851e-03,-1.185800000000000048e-02,-2.003699999999999926e-02,-1.832100000000000048e-02,-2.276600000000000151e-02,-1.642499999999999863e-02,-1.462600000000000011e-02,-1.262399999999999980e-02,-2.625399999999999956e-02,-1.573799999999999852e-02,-8.663999999999999826e-03,-2.394800000000000054e-02,-1.643800000000000122e-02,-1.683799999999999880e-02,-8.963999999999999746e-03,-6.444000000000000075e-03,-2.448699999999999835e-02,-2.039600000000000093e-02,-1.461499999999999952e-02,-2.009599999999999928e-02,-1.717799999999999883e-02,-1.402699999999999954e-02,-1.430200000000000048e-02,-1.294999999999999971e-02,-1.218699999999999992e-02,-1.411100000000000028e-02,-4.462999999999999953e-03,-1.003199999999999925e-02,-3.017000000000000150e-03,-1.728499999999999828e-02,-1.726799999999999863e-02,-1.123900000000000073e-02,-6.778000000000000171e-03,-1.791699999999999890e-02,-1.789999999999999925e-02,-1.285799999999999964e-02,-1.552500000000000061e-02,-1.566400000000000084e-02,-1.257400000000000011e-02,-1.473400000000000057e-02,-2.003999999999999879e-02,-1.018499999999999961e-02,-1.228699999999999931e-02,-9.771999999999999437e-03,-1.322100000000000011e-02,-1.079800000000000031e-02,-1.705500000000000071e-02,-6.755999999999999853e-03,-1.342199999999999990e-02,-7.950999999999999734e-03,-9.076000000000000734e-03,-5.429999999999999931e-03,-1.895399999999999863e-02,-1.229599999999999964e-02,-9.431000000000000147e-03,-1.850100000000000008e-02,-1.702800000000000147e-02,-1.394899999999999959e-02,-9.367999999999999591e-03,-1.871899999999999953e-02,-1.701899999999999941e-02,-2.051000000000000045e-02,-1.138300000000000076e-02,-8.691000000000000808e-03,-1.546800000000000085e-02,-4.227999999999999987e-03,-7.551000000000000420e-03,-2.322999999999999978e-03,-1.209099999999999932e-02,-1.795599999999999974e-02,-1.515200000000000054e-02,-8.489000000000000018e-03,-1.851399999999999921e-02,-8.840999999999999900e-03,-1.571699999999999833e-02,-8.198000000000000426e-03,-1.430999999999999980e-02,-6.218999999999999702e-03,-1.022400000000000045e-02,-1.789999999999999925e-02,-7.328000000000000312e-03,-1.464999999999999983e-02,-1.683399999999999827e-02,-1.761499999999999871e-02,-6.520999999999999887e-03,-1.099999999999999936e-02,-1.871000000000000094e-02,-1.427800000000000076e-02,-1.876299999999999843e-02,-1.553399999999999920e-02,-8.498999999999999611e-03,-1.571499999999999980e-02,-7.259999999999999960e-03,-1.446000000000000063e-02,-1.613900000000000057e-02,-2.420100000000000029e-02,-1.293700000000000058e-02,-1.349900000000000058e-02,-1.620699999999999918e-02,-1.293700000000000058e-02,-1.566400000000000084e-02,-7.075999999999999825e-03,-1.176699999999999968e-02,-8.033999999999999475e-03,-1.506700000000000053e-02,-1.659800000000000164e-02,-1.382500000000000048e-02,-7.271999999999999818e-03,-1.463000000000000064e-02,-1.521199999999999983e-02,-1.463000000000000064e-02,-9.353000000000000203e-03,-1.012500000000000032e-02,-1.223999999999999914e-02,-7.633000000000000028e-03,-1.600299999999999986e-02,-1.619599999999999859e-02,-2.121800000000000075e-02,-2.101599999999999996e-02,-5.369999999999999774e-03,-1.261199999999999995e-02,-9.509000000000000091e-03,-1.755500000000000116e-02,-1.664099999999999954e-02,-1.083999999999999894e-03,-9.658999999999999184e-03,-1.536399999999999919e-02,-4.838000000000000286e-03,-1.580399999999999860e-02,-1.879000000000000115e-02,-6.733000000000000269e-03,-6.708999999999999686e-03,-1.089999999999999997e-02,-1.426099999999999937e-02,-6.138000000000000227e-03,-2.289999999999999935e-03,-1.550699999999999995e-02,-2.651999999999999844e-03,-9.509000000000000091e-03,-6.232999999999999825e-03,-1.772299999999999917e-02,-1.501300000000000030e-02,-1.403000000000000080e-02,-1.340399999999999925e-02,-1.501300000000000030e-02,5.800000000000000034e-05,-1.416599999999999977e-02,-1.145799999999999944e-02,-3.158000000000000217e-03,-2.138999999999999842e-03,-8.189999999999999364e-03,-1.359600000000000045e-02,-1.020300000000000026e-02,-8.113000000000000420e-03,-1.160199999999999947e-02,-9.036999999999999894e-03,-7.499999999999999722e-03,-7.015999999999999667e-03,8.080000000000000160e-04,-3.452999999999999906e-03,-1.491999999999999924e-02,-1.430500000000000001e-02,-2.088599999999999832e-02,-5.133000000000000410e-03,-1.099400000000000030e-02,-6.922000000000000201e-03,-1.035699999999999989e-02,-4.676999999999999734e-03,-1.246500000000000039e-02,-9.020000000000000240e-04,-1.919300000000000173e-02,-1.221900000000000069e-02,-6.441999999999999810e-03,-1.800699999999999870e-02,-1.511000000000000017e-02,-4.864000000000000268e-03,-5.269000000000000246e-03,-4.438000000000000105e-03,-1.317800000000000048e-02,-7.084000000000000019e-03,1.041000000000000042e-03,-2.112800000000000095e-02,-1.075599999999999994e-02,-1.822000000000000008e-02,-5.701999999999999603e-03,-1.561399999999999941e-02,-9.891000000000000486e-03,-1.288699999999999915e-02,-1.037399999999999954e-02,-1.812999999999999941e-03,-2.631299999999999958e-02,-1.379900000000000050e-02,-9.657000000000000653e-03,-1.106299999999999992e-02,-1.020599999999999979e-02,-1.934999999999999915e-02,-1.113199999999999953e-02,-1.972199999999999995e-02,-1.302500000000000012e-02,-3.122000000000000209e-03,-8.963999999999999746e-03,-3.995000000000000287e-03,-1.044600000000000042e-02,-8.798999999999999530e-03,-9.423000000000000820e-03,-1.160199999999999947e-02,-1.835499999999999979e-02,-5.701999999999999603e-03,-1.463700000000000070e-02,-1.474999999999999966e-03,-1.123399999999999919e-02,-6.207999999999999977e-03,-4.939999999999999947e-03,-3.996999999999999685e-03,-4.168999999999999963e-03,-2.805000000000000202e-03,-1.992499999999999827e-02,-4.836000000000000021e-03,-9.740000000000000394e-03,-1.051599999999999931e-02,-4.166999999999999697e-03,-1.350799999999999917e-02,-1.610699999999999979e-02,-1.013599999999999918e-02,-2.097999999999999865e-02,-1.061299999999999917e-02,-1.681099999999999955e-02,-3.625999999999999883e-03,-1.678100000000000078e-02,-1.668599999999999944e-02,-7.491000000000000263e-03,-5.818000000000000255e-03,-4.704999999999999981e-03,-9.053000000000000283e-03,-3.227999999999999967e-03,-9.658999999999999184e-03,-1.907199999999999868e-02,-8.420000000000000401e-03,-1.012399999999999932e-02,-1.144799999999999984e-02,-1.290999999999999960e-02,-6.337999999999999884e-03,-1.725000000000000144e-02,-7.870999999999999525e-03,-1.129600000000000048e-02,-2.919999999999999961e-04,-1.350799999999999917e-02,-1.613099999999999951e-02,-1.075899999999999947e-02,-9.348999999999999672e-03,-1.090299999999999950e-02,-6.272999999999999930e-03,-4.382999999999999743e-03,-1.405799999999999932e-02,-1.138400000000000002e-02,-6.761999999999999782e-03,7.091000000000000081e-03,-1.180600000000000052e-02,-1.898199999999999887e-02,-2.265100000000000099e-02,-4.801999999999999845e-03,4.117000000000000000e-03,-2.805000000000000202e-03,6.549999999999999833e-04,-1.198600000000000013e-02,-6.347000000000000211e-03,-1.066800000000000040e-02,-7.015999999999999667e-03,-4.569000000000000145e-03,-1.496699999999999940e-02,-3.046999999999999795e-03,-1.121800000000000054e-02,-1.027999999999999921e-02,-2.073200000000000043e-02,4.809999999999999823e-04,-8.559000000000000635e-03,-1.006100000000000050e-02,-2.863999999999999792e-03,-4.964999999999999795e-03,-2.396999999999999825e-03,-7.575000000000000136e-03,-7.950999999999999734e-03,2.059000000000000066e-03,-1.772100000000000064e-02,-4.141999999999999849e-03,4.747000000000000351e-03,-1.129999999999999928e-02,7.379000000000000142e-03,-2.210799999999999918e-02,2.896999999999999836e-03,-6.138000000000000227e-03,-1.531000000000000026e-03,-1.531000000000000026e-03,-8.259000000000000716e-03,-5.178999999999999576e-03,-5.359000000000000048e-03,-6.700000000000000226e-04,-1.090900000000000029e-02,-9.534000000000000807e-03,-7.476000000000000006e-03,3.128000000000000138e-03,4.205000000000000404e-03,-2.396999999999999825e-03,-5.092000000000000172e-03,-7.564999999999999676e-03,-6.804000000000000152e-03,-1.268200000000000056e-02,2.663000000000000003e-03,3.497000000000000108e-03,-8.180000000000000422e-04,-8.836000000000000104e-03,-4.895000000000000046e-03,-1.478299999999999927e-02,-1.399999999999999877e-04,-3.968000000000000173e-03,-3.037000000000000203e-03,-1.692099999999999854e-02,-8.883000000000000271e-03,2.471999999999999805e-03,-1.437300000000000036e-02,2.124000000000000020e-03,-4.837000000000000154e-03,-1.497899999999999926e-02,-3.102000000000000157e-03,-6.973000000000000032e-03,-1.114200000000000086e-02,8.319999999999999271e-03,1.010000000000000020e-04,-3.223999999999999869e-03,-7.033000000000000189e-03,1.361999999999999929e-03,-1.175099999999999929e-02,-4.787999999999999722e-03,-4.845000000000000348e-03,-2.599000000000000182e-03,-1.281200000000000047e-02,-1.416599999999999977e-02,-8.113000000000000420e-03,-2.164999999999999824e-03,-5.766000000000000292e-03,-1.876000000000000063e-03,-5.753999999999999566e-03,-3.269999999999999903e-03,-1.275399999999999971e-02,6.000000000000000152e-05,-2.415000000000000046e-03,-1.393499999999999947e-02,2.059000000000000066e-03,4.180000000000000230e-04,-2.108000000000000065e-03,-3.049999999999999868e-04,-7.200999999999999936e-03,-1.191900000000000077e-02,-8.123999999999999277e-03,-8.540000000000000499e-04,-6.624999999999999813e-03,-7.588000000000000127e-03,-6.272999999999999930e-03,-9.501000000000000764e-03,-2.348999999999999960e-03,-7.074999999999999692e-03,-6.773999999999999640e-03,-1.291999999999999963e-03,6.989999999999999686e-04,-7.654000000000000213e-03,-7.347000000000000232e-03,-4.316000000000000392e-03,-9.615000000000000283e-03,-1.130199999999999955e-02,-1.200900000000000058e-02,-1.761999999999999894e-03,-3.052000000000000025e-03,-7.156000000000000034e-03,-1.626899999999999874e-02,-1.207100000000000013e-02,7.891999999999999710e-03,-1.107099999999999924e-02,7.039999999999999817e-04,9.997999999999999943e-03,-8.727000000000000382e-03,-1.511000000000000017e-02,-3.227999999999999967e-03,-1.467999999999999904e-03,-4.887999999999999984e-03,-1.247200000000000045e-02,-3.112999999999999882e-03,-1.701999999999999954e-03,4.079000000000000160e-03,-1.283100000000000039e-02,-3.465999999999999897e-03,1.274699999999999965e-02,-1.095100000000000066e-02,-4.889999999999999599e-04,-1.469699999999999999e-02,2.422000000000000108e-03,-5.285999999999999900e-03,-5.370000000000000424e-04,-1.252999999999999991e-03,-2.348999999999999960e-03,1.923999999999999929e-03,1.776999999999999934e-03,3.164999999999999845e-03,-3.651000000000000165e-03,6.650000000000000095e-04,-3.393000000000000183e-03,-6.377999999999999989e-03,-1.111000000000000008e-03,-5.673000000000000091e-03,1.216999999999999983e-03,-1.345999999999999974e-03,-7.492999999999999661e-03,-4.492000000000000333e-03,-2.985999999999999939e-03,-7.766999999999999599e-03,-1.665900000000000020e-02,-8.289999999999999843e-04,3.739000000000000136e-03,2.910000000000000260e-04,2.798000000000000140e-03,-8.586999999999999147e-03,4.473999999999999679e-03,-8.897000000000000394e-03,-7.132000000000000318e-03,-5.424000000000000002e-03,1.541999999999999968e-03,-5.841999999999999971e-03,-1.524400000000000061e-02,2.105999999999999799e-03,-9.818999999999999603e-03,-3.160000000000000048e-03,-5.138000000000000206e-03,-4.900999999999999975e-03,-1.106000000000000039e-02,-6.507999999999999896e-03,-7.822000000000000827e-03,-1.092300000000000042e-02,-9.550000000000000112e-04,-7.035999999999999720e-03,-9.974999999999999492e-03,-9.658999999999999184e-03,-2.233999999999999875e-03,-9.983000000000000554e-03,-7.641000000000000222e-03,8.009999999999999542e-04,-1.368499999999999925e-02,1.121999999999999950e-03,-9.079000000000000264e-03,-4.838000000000000286e-03,-1.217700000000000032e-02,-1.188099999999999920e-02,-7.134999999999999849e-03,-5.148999999999999931e-03,-1.346400000000000027e-02,-5.532999999999999724e-03,-6.334000000000000220e-03,-2.879000000000000049e-03,-1.776000000000000018e-03,-3.939999999999999817e-04,-9.698999999999999289e-03,-2.105000000000000100e-03,-1.110000000000000049e-02,-1.314599999999999970e-02,-9.516000000000000153e-03,-1.515900000000000060e-02,-1.432399999999999993e-02,-6.589000000000000239e-03,-1.463700000000000070e-02,-1.052499999999999963e-02,-9.632999999999999202e-03,-1.322300000000000038e-02,-1.071500000000000057e-02,-1.049100000000000033e-02,-1.019399999999999994e-02,-1.344399999999999935e-02,-8.289999999999999843e-04,-1.958299999999999971e-02,-6.729999999999999871e-04,-5.250999999999999591e-03,-3.859000000000000017e-03,-1.731600000000000153e-02,-4.544000000000000296e-03,-9.669999999999999776e-03,-1.246399999999999939e-02,-8.795000000000000734e-03,-5.424000000000000002e-03,-1.366000000000000027e-03,-8.897000000000000394e-03,-1.068400000000000079e-02,-1.279899999999999961e-02,-8.656999999999999765e-03,-4.906999999999999904e-03,-9.745999999999999455e-03,-3.105000000000000121e-03,-5.242000000000000132e-03,-8.505000000000000407e-03,-8.569999999999999493e-03,-7.400999999999999593e-03,-1.608800000000000160e-02,-6.610000000000000424e-03,-1.020599999999999979e-02,-1.214499999999999955e-02,-1.066800000000000040e-02,-1.114200000000000086e-02,-4.891000000000000382e-03,-9.440999999999999739e-03,-1.192400000000000057e-02,-1.223600000000000035e-02,-8.817000000000000184e-03,-7.084000000000000019e-03,-4.748999999999999749e-03,-7.781999999999999855e-03,-1.114200000000000086e-02,-1.206400000000000007e-02,-1.376299999999999919e-02,-3.976999999999999633e-03,-7.304999999999999861e-03,-5.408999999999999746e-03,-2.879000000000000049e-03,-1.182899999999999924e-02,-9.268999999999999462e-03,-8.484999999999999487e-03,-5.994000000000000196e-03,-9.584999999999999770e-03,-3.227999999999999967e-03,-8.255999999999999450e-03,-1.028500000000000074e-02,-1.367699999999999992e-02,-6.700000000000000226e-03,-1.052499999999999963e-02,-1.083100000000000035e-02,-3.461000000000000101e-03,-1.265299999999999932e-02,-7.398000000000000062e-03,5.916000000000000252e-03,-9.353000000000000203e-03,-8.264000000000000512e-03,-2.135099999999999845e-02,-1.332500000000000004e-02,-9.757000000000000048e-03,-1.275399999999999971e-02,-1.491699999999999970e-02,-1.203100000000000003e-02,-1.303200000000000018e-02,-9.520000000000000684e-03,-1.217700000000000032e-02,-1.564099999999999865e-02,-1.208399999999999926e-02,-3.507000000000000135e-03,-9.832000000000000461e-03,-3.276999999999999965e-03,-1.656900000000000039e-02,-1.152000000000000073e-02,-1.416599999999999977e-02,-1.218699999999999992e-02,-6.756999999999999985e-03,-1.610699999999999979e-02,-9.197000000000000314e-03,-8.177999999999999506e-03,-1.167799999999999915e-02,-1.425300000000000004e-02,-1.229500000000000037e-02,-2.209200000000000053e-02,-2.168300000000000088e-02,-1.460900000000000046e-02,-8.333999999999999395e-03,-1.284399999999999951e-02,-1.005299999999999944e-02,-1.185800000000000048e-02,-2.159700000000000161e-02,-1.270400000000000001e-02,-5.601000000000000076e-03,-1.136500000000000010e-02,-4.312999999999999994e-03,-2.645999999999999915e-03,4.809999999999999823e-04,-5.330000000000000536e-04,-1.099999999999999936e-02,-1.099999999999999936e-02,-9.827000000000000665e-03,-9.435999999999999943e-03,-1.911699999999999858e-02,-4.499000000000000395e-03,-1.159999999999999920e-02,-8.805000000000000326e-03,-1.183299999999999977e-02,-1.879499999999999921e-02,-8.616999999999999660e-03,-1.020599999999999979e-02,-7.400999999999999593e-03,-1.778000000000000067e-02,1.062999999999999926e-03,-3.746999999999999897e-03,-7.426000000000000309e-03,-8.668000000000000357e-03,-1.604900000000000077e-02,-1.168499999999999921e-02,-1.420699999999999914e-02,-1.694500000000000173e-02,-1.481700000000000031e-02,-1.925100000000000075e-02,-1.416599999999999977e-02,-8.744999999999999302e-03,-7.471000000000000210e-03,-1.060000000000000005e-02,-7.499999999999999343e-05,7.425000000000000176e-03,-1.151800000000000046e-02,-7.592999999999999923e-03,-1.497799999999999999e-02,-1.636999999999999914e-02,-1.198600000000000013e-02,-1.246500000000000039e-02,-1.631900000000000017e-02,-1.474999999999999922e-02,-1.645399999999999988e-02,-9.669999999999999776e-03,-1.566999999999999990e-02,-6.054999999999999619e-03,-1.374900000000000080e-02,-1.045100000000000022e-02,-3.386000000000000121e-03,-2.876999999999999783e-03,-1.161900000000000086e-02,1.600000000000000131e-04,-2.018400000000000055e-02,-1.400200000000000056e-02,-9.586000000000000770e-03,-3.164000000000000146e-03,-1.267599999999999977e-02,-1.878300000000000108e-02,-1.045899999999999955e-02,-7.362999999999999753e-03,-1.754199999999999857e-02,-1.452499999999999972e-02,-2.120899999999999869e-02,-1.246700000000000065e-02,-1.059399999999999925e-02,-7.969000000000000389e-03,-3.743999999999999932e-03,-7.822000000000000827e-03,-9.900000000000000813e-03,-8.389999999999999888e-03,-1.695500000000000132e-02,-7.250000000000000368e-03,-6.276000000000000328e-03,-1.482200000000000011e-02,-1.840599999999999875e-02,-3.235000000000000028e-03,-9.009999999999999997e-04,-9.985000000000000819e-03,-9.740000000000000394e-03,-7.936999999999999611e-03,-1.252099999999999914e-02,8.677999999999999950e-03,-6.786999999999999630e-03,-1.077700000000000012e-02,-2.369999999999999874e-04,-1.385199999999999973e-02,-1.826399999999999899e-02,-2.071800000000000030e-02,-2.288000000000000103e-03,-5.011999999999999962e-03,-1.466699999999999948e-02,-1.299100000000000081e-02,-9.237999999999999684e-03,-2.134499999999999939e-02,-1.253699999999999953e-02,-1.725499999999999950e-02,-1.030799999999999945e-02,-1.589600000000000041e-02,-1.688699999999999923e-02,-4.263000000000000296e-03,2.471999999999999805e-03,-1.627800000000000080e-02,-1.344500000000000035e-02,-1.230900000000000050e-02,-1.906499999999999861e-02,-1.194300000000000049e-02,-1.214499999999999955e-02,-1.451799999999999966e-02,-9.289000000000000382e-03,-1.195300000000000008e-02,-9.206000000000000641e-03,-1.817799999999999971e-02,-8.186999999999999833e-03,-9.348999999999999672e-03,-1.633000000000000076e-02,-4.312999999999999994e-03,-5.872999999999999748e-03,-1.208299999999999999e-02,-1.588499999999999981e-02,-1.023199999999999978e-02,-1.230400000000000070e-02,-2.186799999999999855e-02,-2.500899999999999998e-02,-2.100899999999999990e-02,-6.231999999999999693e-03,-2.632999999999999924e-03,-2.289400000000000115e-02,-1.933199999999999849e-02,-2.928000000000000047e-03,-5.424000000000000002e-03,-1.145900000000000044e-02,-1.916400000000000048e-02,-1.263399999999999940e-02,-1.344799999999999988e-02,-4.139999999999999583e-03,-1.043900000000000036e-02,-1.387599999999999945e-02,-2.101499999999999896e-02,-2.123200000000000087e-02,-5.011999999999999962e-03,-1.337299999999999947e-02,-1.292399999999999972e-02,-9.827999999999999931e-03,-5.773000000000000353e-03,-1.451299999999999986e-02,-1.865400000000000044e-02,-8.259000000000000716e-03,-1.684599999999999986e-02,-3.523000000000000090e-03,-1.326500000000000075e-02,-9.197000000000000314e-03,-5.852000000000000431e-03,-8.574000000000000024e-03,-2.407600000000000018e-02,-1.468500000000000014e-02,-7.870999999999999525e-03,-2.049099999999999880e-02,-1.425300000000000004e-02,-1.445100000000000030e-02,-3.024999999999999911e-03,-5.504000000000000212e-03,-1.505800000000000020e-02,-2.404799999999999993e-02,-1.843799999999999953e-02,-1.411699999999999934e-02,2.011999999999999900e-03,-1.649199999999999972e-02,-1.446000000000000063e-02,-1.082499999999999955e-02,-1.707900000000000043e-02,-7.466999999999999679e-03,-1.157299999999999995e-02,-1.524700000000000014e-02,-1.467700000000000081e-02,-1.094499999999999987e-02,-8.574999999999999289e-03,-2.150300000000000128e-02,-8.505000000000000407e-03,-1.051599999999999931e-02,-2.570599999999999968e-02,-1.649999999999999991e-03,-5.334000000000000200e-03,-8.205999999999999753e-03,-2.134899999999999992e-02,-2.503100000000000117e-02,-1.835600000000000079e-02,-8.358000000000000845e-03,-1.468399999999999914e-02,-6.688999999999999634e-03,-1.323299999999999997e-02,-1.067799999999999999e-02,-3.357999999999999874e-03,-1.241899999999999948e-02,-4.710999999999999910e-03,-1.160600000000000000e-02,-1.318599999999999980e-02,-1.098999999999999977e-02,-2.170499999999999860e-02,-1.802099999999999883e-02,-1.274300000000000085e-02,-7.705000000000000043e-03,-2.395399999999999960e-02,-7.889000000000000179e-03,-1.670200000000000157e-02,-8.122000000000000747e-03,-1.474299999999999916e-02,-4.390999999999999938e-03,-1.596799999999999956e-02,-1.382700000000000075e-02,-1.651100000000000137e-02,-2.678399999999999878e-02,-2.017800000000000149e-02,-1.636599999999999860e-02,-1.401999999999999948e-02,-8.647000000000000172e-03,-6.804000000000000152e-03,-2.087100000000000066e-02,-1.457299999999999915e-02,-2.720099999999999948e-02,-2.159099999999999908e-02,-8.758999999999999425e-03,-1.536799999999999972e-02,-8.803000000000000061e-03,-1.981700000000000128e-02,-1.044600000000000042e-02,-2.242099999999999996e-02,-1.759600000000000053e-02,-1.267599999999999977e-02,-2.074700000000000155e-02,-1.568299999999999902e-02,-1.834300000000000166e-02,-1.218699999999999992e-02,-1.397400000000000031e-02,-1.813400000000000081e-02,9.300000000000000541e-04,-2.264400000000000093e-02,-1.711100000000000121e-02,-2.964500000000000121e-02,-1.581700000000000120e-02,-6.903000000000000282e-03,-9.816999999999999338e-03,-9.286000000000000851e-03,-2.441600000000000020e-02,-1.778800000000000173e-02,-2.027100000000000082e-02,-4.179000000000000423e-03,-1.195399999999999935e-02,-1.750600000000000073e-02,-1.716000000000000164e-02,-7.575000000000000136e-03,-9.076000000000000734e-03,-1.943100000000000036e-02,-2.289499999999999869e-02,-1.912499999999999964e-02,-1.802099999999999883e-02,-2.145899999999999891e-02,-2.004900000000000085e-02,-2.136599999999999958e-02,-1.887600000000000042e-02,-1.153999999999999991e-02,-1.275100000000000018e-02,-2.163400000000000045e-02,-2.091799999999999909e-02,-2.084499999999999895e-02,-4.180000000000000230e-04,-1.754599999999999910e-02,-1.899400000000000047e-02,-4.943999999999999610e-03,-8.975999999999999604e-03,-1.504400000000000008e-02,-1.223999999999999914e-02,-1.866699999999999957e-02,-1.391399999999999929e-02,-1.344399999999999935e-02,-1.175799999999999935e-02,-1.376699999999999972e-02,-1.562900000000000053e-02,-2.197299999999999948e-02,-1.443299999999999965e-02,-1.575899999999999870e-02,-2.263700000000000087e-02,-1.157299999999999995e-02,-1.969100000000000017e-02,-1.678100000000000078e-02,-1.925100000000000075e-02,-9.388999999999999777e-03,-1.052499999999999963e-02,-1.695500000000000132e-02,-2.605100000000000124e-02,-1.610699999999999979e-02,-1.681099999999999955e-02,-2.100000000000000130e-02,-1.566400000000000084e-02,-2.300100000000000061e-02,-2.135099999999999845e-02,-7.633000000000000028e-03,-2.616299999999999876e-02,-1.725000000000000144e-02,-1.910500000000000045e-02,-2.487999999999999934e-02,-1.958599999999999924e-02,-1.214100000000000075e-02,-1.801000000000000170e-02,-1.166000000000000023e-02,-2.559000000000000163e-02,-8.023000000000000617e-03,-1.735199999999999937e-02,-1.792200000000000043e-02,-6.008000000000000319e-03,-1.522699999999999922e-02,-1.920399999999999885e-02,-2.440499999999999961e-02,-8.264999999999999777e-03,-2.038799999999999987e-02,-1.307999999999999961e-02,-1.539500000000000070e-02,-2.300299999999999914e-02,-1.980399999999999869e-02,-1.378799999999999991e-02,-1.137799999999999923e-02,-2.883399999999999852e-02,-1.031400000000000025e-02,-1.928399999999999906e-02,-1.608499999999999860e-02,-2.323599999999999971e-02,-2.097699999999999912e-02,-1.722800000000000026e-02,-1.618800000000000100e-02,-2.275800000000000045e-02,-1.195399999999999935e-02,-2.650800000000000031e-02,-8.333999999999999395e-03,-1.534100000000000047e-02,-2.955800000000000094e-02,-1.326100000000000022e-02,-1.217700000000000032e-02,-1.620699999999999918e-02,-1.966999999999999998e-02,-6.531000000000000347e-03,-2.265100000000000099e-02,-2.347700000000000134e-02,-1.164199999999999957e-02,-1.612999999999999851e-02,-2.393800000000000094e-02,-2.429299999999999862e-02,-2.615200000000000163e-02,-1.366999999999999986e-02,-2.873099999999999959e-02,-1.918900000000000119e-02,-2.563800000000000107e-02,-2.002999999999999919e-02,-1.359800000000000071e-02,-2.846200000000000119e-02,-7.575000000000000136e-03,-1.342199999999999990e-02,-1.879000000000000115e-02,-1.767600000000000074e-02,-1.650300000000000031e-02,-2.264899999999999899e-02,-1.847899999999999890e-02,-1.750499999999999973e-02,-1.824399999999999980e-02,-1.136999999999999990e-02,-2.194499999999999923e-02,-2.204800000000000162e-02,-9.043000000000000690e-03,-2.687600000000000058e-02,-2.429800000000000015e-02,-3.058699999999999961e-02,-2.264700000000000046e-02,-3.139800000000000230e-02,-2.396600000000000119e-02,-1.822999999999999968e-02,-3.523000000000000090e-03,-1.535700000000000086e-02,-2.003699999999999926e-02,-1.454399999999999964e-02,-1.233500000000000048e-02,-1.519099999999999964e-02,-1.734399999999999831e-02,-2.075799999999999867e-02,5.850000000000000165e-03,-1.966999999999999998e-02,-2.476400000000000129e-02,-2.999900000000000136e-02,-3.598000000000000070e-03,-1.620100000000000012e-02,-1.610699999999999979e-02,-1.909500000000000086e-02,-2.075799999999999867e-02,-1.878200000000000008e-02,-2.476899999999999935e-02,-3.135899999999999799e-02,1.215529999999999944e-01,-3.088799999999999879e-02,-1.509100000000000025e-02,-2.338099999999999901e-02,-1.519900000000000070e-02,-2.111599999999999935e-02,-1.264599999999999926e-02,-1.378799999999999991e-02,-1.749099999999999960e-02,-1.928099999999999953e-02,-2.581400000000000014e-02,-1.822800000000000115e-02,-1.823800000000000074e-02,-1.583100000000000132e-02,-1.978299999999999850e-02,-1.250199999999999922e-02,-2.428800000000000056e-02,-2.228199999999999972e-02,-1.005900000000000023e-02,-2.976200000000000026e-02,-1.814100000000000087e-02,-2.010999999999999940e-02,-1.957100000000000159e-02,-3.257100000000000273e-02,-1.695500000000000132e-02,-6.612999999999999955e-03,-1.711100000000000121e-02,-1.848899999999999849e-02,-8.538900000000000656e-02,-1.293700000000000058e-02,-2.101499999999999896e-02,-1.974499999999999866e-02,-1.948199999999999932e-02,-1.429399999999999941e-02,-1.604900000000000077e-02,-1.636599999999999860e-02,-1.208399999999999926e-02,-2.336500000000000035e-02,-1.908100000000000074e-02,-2.050300000000000039e-02,-1.161700000000000059e-02,-2.206400000000000028e-02,-5.210000000000000221e-03,-2.241200000000000137e-02,-2.499399999999999886e-02,-2.489399999999999946e-02,-2.024600000000000011e-02,-2.348899999999999946e-02,-1.812400000000000122e-02,-2.890200000000000061e-02,-1.468399999999999914e-02,-2.911199999999999899e-02,-2.006600000000000050e-02,-1.266780000000000128e-01,-1.207000000000000087e-02,-1.780299999999999938e-02,-1.849900000000000155e-02,-5.081999999999999712e-03,-8.845000000000000431e-03,-1.874800000000000078e-02,-2.429100000000000009e-02,-2.286900000000000044e-02,-2.558900000000000063e-02,-1.945200000000000054e-02,-1.996500000000000011e-02,-1.422000000000000000e-02,-5.138000000000000206e-03,-1.941800000000000123e-02,-1.998199999999999976e-02,-2.157200000000000090e-02,-2.122399999999999981e-02,-2.278099999999999917e-02,-1.241100000000000016e-02,-1.106299999999999992e-02,-6.839999999999999726e-03,-1.731200000000000100e-02,-3.001900000000000054e-02,-2.066899999999999987e-02,-1.680299999999999849e-02,-1.895499999999999963e-02,-2.048000000000000168e-02,-1.928399999999999906e-02,-2.111400000000000082e-02,-1.589499999999999941e-02,-2.038099999999999981e-02,-2.803699999999999942e-02,-1.288100000000000009e-02,-1.865400000000000044e-02,-1.547100000000000038e-02,-1.729999999999999984e-03,-1.352800000000000009e-02,-2.220499999999999904e-02,-2.177400000000000169e-02,-2.407499999999999918e-02,-1.886200000000000029e-02,-2.875499999999999931e-02,-1.830199999999999882e-02,-1.899400000000000047e-02,-1.444199999999999998e-02,-1.710700000000000068e-02,-2.358899999999999886e-02,-1.683399999999999827e-02,-1.582000000000000073e-02,-1.809499999999999997e-02,-9.501000000000000764e-03,-1.284700000000000078e-02,-2.144799999999999832e-02,-2.336799999999999988e-02,-2.066899999999999987e-02,-1.442099999999999979e-02,-2.442599999999999980e-02,-3.106000000000000080e-02,-1.891699999999999979e-02,-1.387599999999999945e-02,-2.031600000000000072e-02,-1.984299999999999953e-02,-1.418299999999999943e-02,-2.062299999999999897e-02,-1.993699999999999986e-02,-1.918900000000000119e-02,-1.062899999999999956e-02,-1.341000000000000004e-02,-2.370799999999999991e-02,-1.323299999999999997e-02,-2.582900000000000126e-02,-2.394800000000000054e-02,-2.791899999999999937e-02,-1.862000000000000113e-02,-2.194499999999999923e-02,-2.836100000000000079e-02,-1.562900000000000053e-02,-2.028100000000000042e-02,-2.192699999999999858e-02,-2.761500000000000066e-02,-1.285299999999999984e-02,-2.732400000000000106e-02,-1.245399999999999979e-02,-2.232299999999999909e-02,-3.015800000000000078e-02,-2.560899999999999982e-02,-1.907199999999999868e-02,-1.956099999999999853e-02,-2.454500000000000084e-02,-2.275800000000000045e-02,-1.492899999999999956e-02,-2.735299999999999884e-02,-9.190000000000000252e-03,-1.074699999999999961e-02,-1.554799999999999932e-02,-3.145599999999999785e-02,-1.921799999999999897e-02,-8.680999999999999481e-03,-2.097699999999999912e-02,-2.037800000000000028e-02,-2.583500000000000033e-02,-2.193700000000000164e-02,-1.956199999999999953e-02,-2.605100000000000124e-02,-2.711699999999999874e-02,-2.031600000000000072e-02,-2.101499999999999896e-02,-2.204800000000000162e-02,-2.682899999999999868e-02,-2.803900000000000142e-02,-1.218600000000000065e-02,-2.121500000000000122e-02,-2.417300000000000004e-02,-1.874800000000000078e-02,-4.709999999999999777e-03,-1.698300000000000157e-02,-1.910200000000000092e-02,-1.554799999999999932e-02,-1.907199999999999868e-02,-1.318599999999999980e-02,-1.907199999999999868e-02,-2.784899999999999876e-02,-1.502299999999999990e-02,-8.255999999999999450e-03,-2.466300000000000089e-02,-9.039000000000000160e-03,-1.815400000000000000e-02,-1.786000000000000087e-02,-2.499399999999999886e-02,-1.720599999999999907e-02,-1.262399999999999980e-02,-1.467700000000000081e-02,-1.415600000000000018e-02,-2.133600000000000080e-02,-1.482699999999999990e-02,-1.755500000000000116e-02,-1.624400000000000149e-02,-2.076899999999999927e-02,-5.133000000000000410e-03,-2.720600000000000102e-02,-1.611200000000000132e-02,-2.112800000000000095e-02,-2.240500000000000130e-02,-2.181400000000000006e-02,-2.322999999999999978e-03,-1.226600000000000086e-02,-2.716899999999999871e-02,-3.776999999999999975e-03,-2.075799999999999867e-02,-1.725000000000000144e-02,-8.590999999999999678e-03,-7.492999999999999661e-03,-2.174900000000000097e-02,-2.230800000000000144e-02,-5.577000000000000360e-03,-2.725899999999999851e-02,-2.550900000000000042e-02,-2.240800000000000083e-02,-2.382899999999999949e-02,-3.032400000000000026e-02,-1.091300000000000082e-02,-1.943100000000000036e-02,-1.744499999999999870e-02,-2.755099999999999910e-02,-1.501300000000000030e-02,-1.792200000000000043e-02,-1.838100000000000150e-02,-1.799500000000000058e-02,-1.639900000000000038e-02,-2.616800000000000029e-02,-1.744700000000000070e-02,-2.780499999999999985e-02,-1.502599999999999943e-02,-1.909399999999999986e-02,-1.283899999999999972e-02,-1.446000000000000063e-02,-1.101199999999999922e-02,-2.323599999999999971e-02,-1.492899999999999956e-02,-1.932800000000000143e-02,-1.332500000000000004e-02,-8.026999999999999413e-03,-9.891000000000000486e-03,-1.167299999999999935e-02,-2.220499999999999904e-02,-1.813000000000000028e-02,-2.209699999999999859e-02,-1.707200000000000037e-02,-1.343899999999999956e-02,-8.333999999999999395e-03,-1.200900000000000058e-02,-2.148800000000000016e-02,-1.230200000000000043e-02,-2.522399999999999989e-02,-2.374700000000000075e-02,-1.840599999999999875e-02,-2.538599999999999884e-02,-1.957100000000000159e-02,-2.664199999999999902e-02,-2.393999999999999947e-02,-1.223999999999999914e-02,-1.695500000000000132e-02,-6.377999999999999989e-03,-8.033999999999999475e-03,-1.348899999999999925e-02,-1.175700000000000009e-02,-2.244700000000000167e-02,-1.999099999999999835e-02,-1.429199999999999915e-02,-2.184699999999999837e-02,-2.039799999999999947e-02,-1.826499999999999999e-02,-1.217599999999999932e-02,-1.345000000000000058e-03,-2.089799999999999991e-02,-1.641799999999999857e-02,-1.399199999999999923e-02,-2.141200000000000048e-02,-1.293500000000000032e-02,-5.701999999999999603e-03,-1.426099999999999937e-02,-1.608800000000000160e-02,-8.489000000000000018e-03,-1.838700000000000057e-02,-1.427499999999999949e-02,-1.547499999999999917e-02,-9.667000000000000245e-03,-1.652299999999999949e-02,-1.804300000000000001e-02,-9.768000000000000640e-03,-1.130199999999999955e-02,-1.654900000000000121e-02,-1.218699999999999992e-02,-6.702999999999999757e-03,-1.373300000000000042e-02,-2.393800000000000094e-02,-1.460799999999999946e-02,-2.078500000000000139e-02,-2.595599999999999991e-02,-1.292399999999999972e-02,-2.314700000000000091e-02,-2.282599999999999907e-02,-1.481700000000000031e-02,-1.533299999999999941e-02,-1.204000000000000035e-02,-1.052600000000000063e-02,-7.405000000000000124e-03,-1.208399999999999926e-02,-1.502599999999999943e-02,-7.396999999999999929e-03,-1.781500000000000097e-02,-1.622399999999999884e-02,-2.406300000000000106e-02,-2.651500000000000037e-02,-6.845999999999999655e-03,-2.110599999999999976e-02,-6.165000000000000341e-03,-1.166000000000000023e-02,-1.531800000000000002e-02,-2.382899999999999949e-02,-8.505000000000000407e-03,-2.663099999999999842e-02,-1.777099999999999860e-02,-1.635500000000000148e-02,-1.576400000000000023e-02,-9.584999999999999770e-03,-1.346699999999999980e-02,-1.474299999999999916e-02,-1.788999999999999965e-02,-2.488500000000000087e-02,-2.241500000000000090e-02,-1.884699999999999917e-02,-5.740999999999999576e-03,-6.843000000000000124e-03,-1.748800000000000007e-02,-9.534000000000000807e-03,-1.389899999999999990e-02,-6.444000000000000075e-03,-1.643800000000000122e-02,-2.590999999999999987e-03,-1.204000000000000035e-02,-1.566400000000000084e-02,-1.281200000000000047e-02,-2.534600000000000047e-02,-2.230899999999999897e-02,-1.831999999999999948e-02,-1.984700000000000006e-02,-1.382899999999999928e-02,-1.676800000000000165e-02,-1.170900000000000066e-02,-2.016499999999999890e-02,7.091000000000000081e-03,-1.010000000000000047e-03,-5.342999999999999659e-03,-1.464999999999999983e-02,-1.547499999999999917e-02,-1.546900000000000011e-02,-2.756899999999999976e-02,-1.029000000000000054e-02,-1.099900000000000010e-02,-1.046599999999999961e-02,-1.406699999999999964e-02,-1.300100000000000040e-02,-1.217200000000000053e-02,-2.218399999999999886e-02,-1.107299999999999951e-02,-2.985999999999999939e-03,-1.716000000000000164e-02,-8.696000000000000604e-03,-1.082499999999999955e-02,-8.521000000000000796e-03,-1.085000000000000027e-02,-1.335899999999999935e-02,-2.218399999999999886e-02,-6.309000000000000372e-03,-1.265299999999999932e-02,-1.613799999999999957e-02,-1.401999999999999948e-02,-1.178500000000000034e-02,-1.421000000000000041e-02,-1.486700000000000001e-02,-6.386000000000000183e-03,-1.014600000000000050e-02,-1.342199999999999990e-02,-1.210299999999999918e-02,-7.718000000000000034e-03,-1.311000000000000013e-02,-1.052600000000000063e-02,-5.079000000000000181e-03,-1.553500000000000020e-02,-1.478299999999999927e-02,-2.315000000000000044e-02,-2.700299999999999923e-02,-1.085999999999999986e-02,-1.198600000000000013e-02,-1.145799999999999944e-02,-9.827000000000000665e-03,-1.483199999999999970e-02,-1.385300000000000073e-02,-5.708999999999999665e-03,-1.762999999999999984e-02,-1.827099999999999905e-02,-9.009999999999999997e-04,-2.584499999999999992e-02,-1.711899999999999880e-02,-5.124000000000000082e-03,-6.165999999999999606e-03,-1.576400000000000023e-02,-1.892699999999999938e-02,-1.060000000000000005e-02,-7.512999999999999713e-03,-1.391399999999999929e-02,-8.163000000000000117e-03,-1.619599999999999859e-02,-1.292199999999999946e-02,-2.331799999999999845e-02,-1.675000000000000100e-02,-4.141999999999999849e-03,-7.818999999999999562e-03,-6.008000000000000319e-03,-6.708999999999999686e-03,-8.581000000000000086e-03,-3.795000000000000196e-03,-3.976999999999999633e-03,4.578999999999999737e-03,-1.338100000000000053e-02,-7.985000000000000778e-03,-1.020000000000000073e-02,-2.058300000000000060e-02,-8.427000000000000463e-03,-1.569999999999999944e-04,-2.289999999999999935e-03,-5.472000000000000301e-03,-1.353299999999999989e-02,-1.085999999999999986e-02,-1.384200000000000014e-02,-2.249500000000000111e-02,-6.503000000000000100e-03,-2.158099999999999949e-02,-9.376000000000000653e-03,-1.610100000000000073e-02,-2.341999999999999898e-03,-1.123000000000000040e-02,-2.680000000000000090e-04,-5.242000000000000132e-03,-9.825000000000000400e-03,-1.681900000000000062e-02,-5.988000000000000267e-03,-1.723500000000000032e-02,-1.725499999999999950e-02,-1.741699999999999846e-02,-4.026000000000000065e-03,-1.761999999999999894e-03,-1.230200000000000043e-02,-1.521499999999999936e-02,9.053000000000000283e-03,3.840000000000000097e-03,-4.433000000000000308e-03,1.500999999999999947e-03,-1.451799999999999966e-02,-2.367999999999999879e-03,-1.376499999999999946e-02,-1.428699999999999935e-02,-1.568200000000000149e-02,-1.675199999999999953e-02,-3.736999999999999870e-03,-4.206999999999999802e-03,-7.200999999999999936e-03,-6.816000000000000010e-03,-1.038200000000000060e-02,-1.940499999999999864e-02,-1.061299999999999917e-02,-1.513300000000000062e-02,-1.152700000000000079e-02,-1.176800000000000068e-02,-1.145799999999999944e-02,-7.703999999999999911e-03,-2.011599999999999847e-02,3.818999999999999912e-03,-1.362299999999999969e-02,-3.808000000000000187e-03,-9.926000000000000795e-03,-9.466999999999999721e-03,-7.648000000000000284e-03,-6.962999999999999572e-03,-1.637699999999999920e-02,-1.531000000000000026e-03,-8.489000000000000018e-03,-1.464999999999999983e-02,-9.516000000000000153e-03,-3.851999999999999955e-03,-1.269499999999999969e-02,-1.406600000000000038e-02,-1.837899999999999950e-02,-1.200200000000000052e-02,-2.011500000000000093e-02,-5.936000000000000304e-03,-1.478299999999999927e-02,-8.817000000000000184e-03,-1.450500000000000053e-02,-8.734999999999999709e-03,-1.331700000000000071e-02,-1.121699999999999954e-02,-9.856000000000000177e-03,-7.334000000000000241e-03,-6.271999999999999797e-03,-1.368499999999999925e-02,-6.444000000000000075e-03,-1.744499999999999870e-02,-1.375700000000000013e-02,-1.130399999999999981e-02,1.268999999999999946e-03,-9.426999999999999616e-03,-1.206400000000000007e-02,-1.052600000000000063e-02,-7.896000000000000241e-03,-1.167600000000000061e-02,-1.049100000000000033e-02,-8.163000000000000117e-03,-2.237400000000000153e-02,-1.703199999999999853e-02,-9.435999999999999943e-03,-7.409999999999999920e-03,-4.029999999999999728e-03,-1.167999999999999941e-02,-1.138400000000000002e-02,-2.348999999999999960e-03,-2.756899999999999976e-02,-1.115000000000000019e-02,-1.780699999999999991e-02,-2.805099999999999955e-02,-1.422299999999999953e-02,-8.505000000000000407e-03,-1.698300000000000157e-02,-2.380000000000000117e-04,-2.616800000000000029e-02,-6.876000000000000167e-03,6.300000000000000044e-03,-7.908000000000000099e-03,-9.060000000000000345e-03,-9.598999999999999894e-03,-1.191700000000000051e-02,-7.710999999999999972e-03,-1.144799999999999984e-02,-1.440699999999999967e-02,-1.209099999999999932e-02,-1.225399999999999927e-02,-6.839999999999999726e-03,-1.347399999999999987e-02,-1.562900000000000053e-02,-1.471000000000000085e-03,-2.236000000000000140e-03,-2.132999999999999913e-03,-1.130199999999999955e-02,-1.020599999999999979e-02,-1.748100000000000001e-02,-9.197000000000000314e-03,-8.965000000000000746e-03,1.345999999999999974e-03,-9.825000000000000400e-03,-6.001000000000000258e-03,-6.630999999999999742e-03,-2.025199999999999917e-02,-1.497899999999999926e-02,-1.779000000000000026e-02,-1.159999999999999920e-02,-7.472999999999999608e-03,-1.309100000000000021e-02,-1.919999999999999832e-02,-1.051599999999999931e-02,-1.731200000000000100e-02,-8.897000000000000394e-03,-1.006800000000000056e-02,-9.516000000000000153e-03,-2.137100000000000111e-02,-2.500899999999999998e-02,-1.114200000000000086e-02,-2.463500000000000065e-02,-7.165999999999999627e-03,-1.332500000000000004e-02,-1.557200000000000077e-02,-1.462800000000000038e-02,-5.269000000000000246e-03,-8.491000000000000283e-03,-8.172999999999999710e-03,-1.399199999999999923e-02,-1.097899999999999918e-02,-1.568200000000000149e-02,-1.036100000000000042e-02,-1.589499999999999941e-02,-1.425300000000000004e-02,-2.263700000000000087e-02,-6.931999999999999794e-03,-9.509000000000000091e-03,-2.406000000000000152e-02,-1.891599999999999879e-02,-1.323099999999999971e-02,-2.038999999999999840e-02,-1.886499999999999982e-02,-1.336500000000000014e-02,-1.781500000000000097e-02,-2.135099999999999845e-02,-1.067799999999999999e-02,-2.251600000000000129e-02,-1.830199999999999882e-02,-7.399000000000000195e-03,-1.144700000000000058e-02,-1.361300000000000010e-02,-1.466699999999999948e-02,-2.002500000000000113e-02,-2.355700000000000155e-02,-1.678100000000000078e-02,-1.366000000000000027e-03,-2.710299999999999862e-02,-3.701999999999999996e-03,-4.266999999999999960e-03,-1.780999999999999944e-02,-1.399199999999999923e-02,-9.669999999999999776e-03,-6.700000000000000226e-04,-5.651999999999999906e-03,-1.794499999999999915e-02,-1.675000000000000100e-02,-1.748100000000000001e-02,-1.664799999999999960e-02,-1.430700000000000027e-02,-1.842399999999999941e-02,-6.468999999999999924e-03,-1.786000000000000087e-02,-8.290000000000000493e-03,-1.878300000000000108e-02,-1.886799999999999936e-02,-7.995000000000000370e-03,-1.919300000000000173e-02,-1.169800000000000006e-02,-1.689099999999999976e-02,-1.599300000000000027e-02,-1.060000000000000005e-02,-1.230200000000000043e-02,-1.428699999999999935e-02,-4.720000000000000237e-03,-1.771599999999999911e-02,-1.382500000000000048e-02,-2.025899999999999923e-02,-2.131000000000000082e-03,-1.493000000000000056e-02,-1.776000000000000148e-02,-1.878200000000000008e-02,-2.290400000000000075e-02,-1.534100000000000047e-02,-1.344799999999999988e-02,-2.242800000000000002e-02,-1.098299999999999971e-02,-2.117399999999999838e-02,-1.672099999999999975e-02,-1.915199999999999889e-02,-1.345799999999999948e-02,-1.160199999999999947e-02,-2.005399999999999891e-02,-9.116000000000000839e-03,-8.805000000000000326e-03,-1.808900000000000091e-02,-2.024600000000000011e-02,-1.421900000000000074e-02,-2.734100000000000072e-02,-1.263399999999999940e-02,-1.857100000000000070e-02,-2.177400000000000169e-02,-1.701899999999999941e-02,-2.268200000000000077e-02,-1.550699999999999995e-02,-1.881899999999999892e-02,-1.952200000000000116e-02,-1.673799999999999941e-02,-7.760999999999999670e-03,-1.997099999999999917e-02,-1.453100000000000051e-02,-1.390300000000000043e-02,5.479999999999999845e-04,-1.254199999999999933e-02,-1.262100000000000027e-02,-1.136500000000000010e-02,-1.051599999999999931e-02,-9.119999999999999635e-03,-1.167600000000000061e-02,-1.391399999999999929e-02,-1.895700000000000163e-02,-1.841299999999999881e-02,-1.818699999999999831e-02,-2.438399999999999943e-02,-1.330500000000000085e-02,-1.452200000000000019e-02,-1.114399999999999939e-02,-2.310000000000000042e-04,-1.477499999999999994e-02,-9.268999999999999462e-03,-9.452000000000000332e-03,-9.048999999999999752e-03,-1.859600000000000142e-02,-1.634499999999999842e-02,-1.906499999999999861e-02,-1.878200000000000008e-02,-1.278600000000000049e-02,-2.251600000000000129e-02,-2.581999999999999920e-02,-1.521000000000000000e-03,-1.828799999999999870e-02,-1.362299999999999969e-02,-1.961600000000000149e-02,-1.098299999999999971e-02,-1.576400000000000023e-02,-1.397800000000000084e-02,-1.762999999999999984e-02,-1.617700000000000041e-02,-1.491999999999999924e-02,-2.042599999999999971e-02,-2.531999999999999963e-03,-1.712100000000000080e-02,-1.486900000000000027e-02,-1.217200000000000053e-02,-1.354600000000000075e-02,-2.361699999999999910e-02,-1.405799999999999932e-02,-2.281599999999999948e-02,-1.255700000000000045e-02,-4.475999999999999944e-03,-1.480500000000000045e-02,-2.123999999999999846e-02,-1.189400000000000006e-02,-8.250000000000000389e-03,-2.442599999999999980e-02,-2.360299999999999898e-02,-1.892699999999999938e-02,-5.079000000000000181e-03,-1.721800000000000067e-02,-3.097099999999999853e-02,-2.760400000000000006e-02,-1.674099999999999894e-02,-1.491800000000000070e-02,-1.313100000000000031e-02,-6.146000000000000421e-03,-1.757699999999999887e-02,-2.017899999999999902e-02,-2.940399999999999958e-02,-2.581400000000000014e-02,-1.399199999999999923e-02,-1.784300000000000122e-02,-1.594200000000000131e-02,-9.133000000000000493e-03,-1.177800000000000027e-02,-1.218699999999999992e-02,-1.281200000000000047e-02,-1.838700000000000057e-02,-2.183300000000000171e-02,-1.892699999999999938e-02,-3.262700000000000322e-02,-1.693100000000000160e-02,-2.057999999999999934e-03,-2.421699999999999894e-02,-1.836700000000000138e-02,-2.442899999999999933e-02,-1.732300000000000159e-02,-2.027100000000000082e-02,-1.926200000000000134e-02,-1.121199999999999974e-02,-2.605100000000000124e-02,-2.382400000000000143e-02,-2.373000000000000109e-02,-1.572799999999999893e-02,-1.492899999999999956e-02,-1.670200000000000157e-02,-2.110599999999999976e-02,-1.610699999999999979e-02,-1.838700000000000057e-02,-2.301599999999999827e-02,-1.401999999999999948e-02,-2.757599999999999982e-02,-2.323300000000000018e-02,-1.985599999999999865e-02,-2.995099999999999846e-02,-2.206400000000000028e-02,-1.193699999999999969e-02,-1.550400000000000042e-02,-1.621900000000000078e-02,-2.113599999999999854e-02,-2.628199999999999981e-02,-1.930700000000000124e-02,-2.441600000000000020e-02,-1.740200000000000080e-02,-3.135700000000000293e-02,-2.987799999999999831e-02,-2.100000000000000130e-02,-2.482600000000000084e-02,-1.861700000000000160e-02,-1.401999999999999948e-02,-2.794100000000000056e-02,-3.273899999999999727e-02,-2.206400000000000028e-02,-1.593899999999999831e-02,-3.839100000000000151e-02,-2.237400000000000153e-02,-2.743699999999999958e-02,-1.615099999999999869e-02,-1.807200000000000126e-02,-1.623000000000000137e-02,-3.214000000000000190e-02,-1.420800000000000014e-02,-2.406000000000000152e-02,-1.842399999999999941e-02,-1.762000000000000025e-02,-2.035500000000000156e-02,-2.166500000000000023e-02,-2.513299999999999909e-02,-2.171800000000000119e-02,-2.335599999999999829e-02,-2.745200000000000071e-02,-1.935800000000000021e-02,-2.452299999999999966e-02,-1.892699999999999938e-02,-1.382899999999999928e-02,-2.090499999999999997e-02,-3.227700000000000014e-02,-3.249599999999999711e-02,-2.916600000000000095e-02,-3.059999999999999873e-02,-1.388499999999999977e-02,-1.856000000000000011e-02,-2.219000000000000139e-02,-1.923899999999999916e-02,-2.895100000000000104e-02,-1.183299999999999977e-02,-1.969299999999999870e-02,-2.186799999999999855e-02,-1.382500000000000048e-02,-2.442799999999999833e-02,-2.511599999999999944e-02,-1.701899999999999941e-02,-2.685999999999999846e-02,-1.343899999999999956e-02,-1.454300000000000037e-02,-2.163999999999999951e-02,-2.044899999999999843e-02,-1.245399999999999979e-02,-2.314499999999999891e-02,-2.605499999999999830e-02,-2.513699999999999962e-02,-2.743699999999999958e-02,-2.757300000000000029e-02,-1.322800000000000017e-02,-2.287700000000000150e-02,-1.684599999999999986e-02,-2.148800000000000016e-02,-2.650399999999999978e-02,-2.061699999999999991e-02,-1.382700000000000075e-02,-2.904699999999999990e-02,-1.894200000000000050e-02,-1.261400000000000021e-02,-2.030799999999999966e-02,-1.673699999999999841e-02,-1.875200000000000131e-02,-2.181699999999999959e-02,-1.599300000000000027e-02,-1.491699999999999970e-02,-1.160500000000000073e-02,-8.349999999999999784e-03,-1.803499999999999895e-02,-1.828000000000000111e-02,-1.603699999999999917e-02,-1.681099999999999955e-02,-2.089799999999999991e-02,-2.323300000000000018e-02,-1.781500000000000097e-02,-2.734200000000000172e-02,-1.604600000000000123e-02,-1.924599999999999922e-02,-2.281599999999999948e-02,-1.144700000000000058e-02,-1.620100000000000012e-02,-1.657000000000000139e-02,-1.241899999999999948e-02,-2.843599999999999947e-02,-2.802800000000000083e-02,-2.026700000000000029e-02,-2.182200000000000112e-02,-2.604199999999999918e-02,-2.813500000000000029e-02,-3.412199999999999955e-02,-2.266400000000000012e-02,-2.358700000000000033e-02,-5.414000000000000409e-03,-8.177999999999999506e-03,-1.730200000000000141e-02,-2.631299999999999958e-02,-1.256600000000000078e-02,-1.444199999999999998e-02,-1.571499999999999980e-02,-2.110599999999999976e-02,-1.525499999999999946e-02,-2.336299999999999835e-02,-1.239099999999999924e-02,-2.842300000000000035e-02,-7.941999999999999407e-03,-2.557999999999999857e-02,-2.957600000000000159e-02,-1.472000000000000045e-02,-2.242099999999999996e-02,-1.463700000000000070e-02,-1.501300000000000030e-02,-2.312600000000000072e-02,-2.826599999999999946e-02,-1.724499999999999991e-02,-1.803300000000000042e-02,-1.650899999999999937e-02,-1.660400000000000070e-02,-1.896000000000000116e-02,-1.604600000000000123e-02,-1.472500000000000024e-02,-2.580899999999999861e-02,-9.974999999999999492e-03,-1.082499999999999955e-02,-1.674199999999999994e-02,-1.651299999999999990e-02,-2.065499999999999975e-02,-7.709999999999999840e-03,-1.603299999999999864e-02,-1.720800000000000107e-02,-1.167799999999999915e-02,-1.300199999999999967e-02,-1.392799999999999941e-02,-1.613300000000000151e-02,-1.544000000000000060e-02,-7.896000000000000241e-03,-1.943100000000000036e-02,-2.289100000000000162e-02,-1.818300000000000125e-02,-1.229599999999999964e-02,-2.217999999999999833e-02,-1.618700000000000000e-02,-1.291400000000000013e-02,-1.849900000000000155e-02,-1.136900000000000063e-02,-1.611800000000000038e-02,-1.755500000000000116e-02,-1.194500000000000076e-02,-1.083100000000000035e-02,-1.191200000000000071e-02,-1.214499999999999955e-02,-1.198600000000000013e-02,-9.116000000000000839e-03,-1.300199999999999967e-02,-2.130800000000000055e-02,-1.758900000000000047e-02,-2.315000000000000044e-02,-1.671699999999999922e-02,-1.784999999999999911e-03,-1.878300000000000108e-02,-2.347899999999999987e-02,-1.547499999999999917e-02,-1.401999999999999948e-02,-1.491999999999999924e-02,-2.044199999999999837e-02,-9.586000000000000770e-03,-1.068599999999999932e-02,-4.720000000000000237e-03,-1.748800000000000007e-02,-1.603500000000000064e-02,-1.504800000000000061e-02,-1.013499999999999991e-02,-4.668000000000000274e-03,-1.083100000000000035e-02,-1.474699999999999969e-02,-6.043999999999999893e-03,-1.075300000000000041e-02,-3.971999999999999836e-03,-1.375700000000000013e-02,-1.694700000000000026e-02,-5.093999999999999570e-03,-1.234099999999999954e-02,-2.409299999999999983e-02,-5.586999999999999952e-03,-5.411000000000000011e-03,-9.287999999999999381e-03,-1.743499999999999911e-02,-1.084800000000000000e-02,-2.134499999999999939e-02,-5.929000000000000242e-03,-2.111299999999999982e-02,-1.656099999999999933e-02,-7.373000000000000213e-03,-1.257499999999999937e-02,-1.361300000000000010e-02,-1.059399999999999925e-02,-9.148999999999999147e-03,-7.429999999999999973e-03,-1.983100000000000140e-02,-6.216000000000000171e-03,-1.238700000000000044e-02,-9.289000000000000382e-03,-1.814199999999999841e-02,-5.823000000000000051e-03,-1.671699999999999922e-02,-1.055000000000000035e-02,-1.789299999999999918e-02,-1.321899999999999985e-02,-1.983299999999999993e-02,-1.618299999999999947e-02,-1.648900000000000018e-02,-7.820999999999999827e-03,-9.287000000000000116e-03,-5.009000000000000431e-03,-1.204500000000000015e-02,-1.549999999999999946e-03,-1.665300000000000114e-02,-1.528799999999999951e-02,-1.771599999999999911e-02,5.065000000000000058e-03,-1.229099999999999984e-02,-9.550000000000000112e-04,-1.246200000000000085e-02,-1.598199999999999968e-02,-1.424599999999999998e-02,-1.732900000000000065e-02,-1.397800000000000084e-02,-3.621999999999999786e-03,-1.213599999999999922e-02,-1.123700000000000046e-02,-6.673000000000000112e-03,-4.838000000000000286e-03,-1.031800000000000078e-02,-1.293200000000000079e-02,-9.060999999999999610e-03,-2.633500000000000077e-02,-1.152700000000000079e-02,-1.620500000000000065e-02,-8.354000000000000314e-03,-1.160500000000000073e-02,-1.160500000000000073e-02,-4.081999999999999691e-03,-1.611800000000000038e-02,-1.543100000000000027e-02,-4.329999999999999648e-03,-1.368800000000000051e-02,-9.348999999999999672e-03,-1.382899999999999928e-02,-9.348999999999999672e-03,-6.102999999999999918e-03,-1.483100000000000043e-02,-5.934000000000000039e-03,-1.955999999999999839e-03,-3.017000000000000150e-03,-9.466999999999999721e-03,-8.852000000000000493e-03,-2.778999999999999786e-03,-1.416000000000000071e-02,-1.290999999999999960e-02,-7.200999999999999936e-03,-1.591000000000000053e-02,-1.244699999999999973e-02,-1.766399999999999915e-02,-1.168499999999999921e-02,-1.268200000000000056e-02,-1.314599999999999970e-02,-1.146299999999999923e-02,-1.117499999999999917e-02,-1.489900000000000078e-02,-1.430500000000000001e-02,-1.043600000000000083e-02,-1.198199999999999960e-02,-7.794999999999999846e-03,-5.408999999999999746e-03,-5.754999999999999699e-03,3.007999999999999823e-03,-1.146299999999999923e-02,-1.015399999999999983e-02,-1.253699999999999953e-02,-1.430799999999999954e-02,-1.671699999999999922e-02,-9.603999999999999690e-03,-1.107099999999999924e-02,-9.745999999999999455e-03,-9.658999999999999184e-03,-2.975799999999999973e-02,-1.337299999999999947e-02,-5.308000000000000218e-03,-1.084099999999999994e-02,-5.427000000000000400e-03,-1.262600000000000007e-02,-1.391099999999999975e-02,-1.703299999999999953e-02,-6.760000000000000384e-03,-1.530600000000000016e-02,-1.436400000000000003e-02,-1.490099999999999932e-02,-6.851000000000000319e-03,-7.531999999999999633e-03,-1.847700000000000037e-02,-1.110599999999999955e-02,-1.792799999999999949e-02,-1.830100000000000129e-02,1.203000000000000076e-03,-9.079000000000000264e-03,-1.585900000000000157e-02,-3.629999999999999980e-03,-6.224999999999999631e-03,-1.757299999999999834e-02,-1.075300000000000041e-02,-9.799999999999999684e-03,-9.768000000000000640e-03,-7.761999999999999802e-03,1.572000000000000047e-03,-1.367600000000000066e-02,-1.121199999999999974e-02,-1.221399999999999916e-02,-2.236000000000000140e-03,-3.216000000000000109e-03,1.248999999999999893e-03,-6.902000000000000149e-03,-1.101099999999999995e-02,-1.704400000000000012e-02,-1.702100000000000141e-02,-1.445699999999999937e-02,-1.423699999999999966e-02,-8.949999999999999623e-03,-5.132000000000000277e-03,-1.068000000000000026e-02,-2.014999999999999864e-03,-5.132000000000000277e-03,-1.107499999999999978e-02,-1.413099999999999946e-02,-8.212000000000000549e-03,-1.081200000000000043e-02,-7.030999999999999923e-03,-1.349700000000000032e-02,-7.820999999999999827e-03,-9.180000000000000659e-03,-3.242999999999999789e-03,-8.678999999999999215e-03,-1.061299999999999917e-02,-1.321699999999999958e-02,1.039999999999999936e-04,-5.645999999999999977e-03,-1.025700000000000049e-02,-1.069699999999999991e-02,-1.814599999999999894e-02,-4.923000000000000292e-03,-2.026899999999999882e-02,-7.531999999999999633e-03,-6.962999999999999572e-03,-1.136999999999999990e-02,-6.616000000000000353e-03,-6.104000000000000051e-03,7.910000000000000364e-04,-4.735999999999999759e-03,-8.892999999999999863e-03,-9.690999999999999961e-03,-1.494000000000000102e-03,-1.527500000000000038e-02,-1.734000000000000081e-03,-6.965999999999999970e-03,-3.570999999999999956e-03,-1.498999999999999898e-03,-8.781999999999999876e-03,-7.476000000000000006e-03,-1.306599999999999949e-02,-1.207699999999999919e-02,-8.326999999999999333e-03,-5.499999999999999681e-03,-2.292000000000000200e-03,-1.145700000000000017e-02,-1.881000000000000076e-03,-8.907999999999999252e-03,-1.832000000000000078e-03,-6.444000000000000075e-03,-5.072000000000000119e-03,-7.132999999999999584e-03,-7.138000000000000247e-03,-7.359000000000000090e-03,-6.403999999999999970e-03,-1.210600000000000044e-02,-8.529000000000000123e-03,-6.507999999999999896e-03,4.270000000000000249e-04,-5.124000000000000082e-03,-9.780000000000000498e-03,-1.061299999999999917e-02,-1.169899999999999933e-02,-2.088599999999999832e-02,-1.087399999999999999e-02,-8.212000000000000549e-03,-6.806999999999999683e-03,-1.106900000000000071e-02,-8.911999999999999783e-03,-6.566999999999999921e-03,-1.306599999999999949e-02,3.628000000000000148e-03,-3.054999999999999990e-03,-1.955999999999999839e-03,-5.007000000000000166e-03,-5.190000000000000169e-03,4.360000000000000269e-04,-9.740000000000000394e-03,-1.314399999999999943e-02,-1.205999999999999954e-02,-7.825999999999999623e-03,-6.156000000000000014e-03,-3.105000000000000121e-03,-6.616000000000000353e-03,-3.288000000000000124e-03,-1.244699999999999973e-02,-9.048999999999999752e-03,-1.161900000000000086e-02,-1.072700000000000042e-02,-8.729000000000000647e-03,-1.267599999999999977e-02,-3.158000000000000217e-03,-4.035999999999999657e-03,-6.102999999999999918e-03,-5.800000000000000034e-04,-1.498700000000000032e-02,-7.702999999999999778e-03,-1.260400000000000062e-02,-1.192400000000000057e-02,-1.754800000000000110e-02,-1.081200000000000043e-02,-2.009000000000000022e-02,-1.599300000000000027e-02,-4.951999999999999805e-03,-7.792000000000000315e-03,5.173999999999999780e-03,-8.189999999999999364e-03,-7.028000000000000393e-03,-3.054999999999999990e-03,-1.230000000000000082e-04,-5.190000000000000169e-03,-2.465000000000000177e-03,-1.836700000000000138e-02,-1.807699999999999932e-02,-1.306599999999999949e-02,-3.923000000000000272e-03,-1.605699999999999836e-02,-8.616999999999999660e-03,-1.253699999999999953e-02,-8.219000000000000611e-03,-5.000000000000000104e-04,-4.784000000000000058e-03,-5.323999999999999740e-03,-1.392400000000000061e-02,-8.290000000000000493e-03,-4.923000000000000292e-03,-1.198600000000000013e-02,-1.267599999999999977e-02,-1.588300000000000128e-02,-1.175799999999999935e-02,-2.279000000000000210e-03,-1.306599999999999949e-02,-1.285099999999999958e-02,-1.019399999999999994e-02,-1.081599999999999923e-02,-1.276700000000000057e-02,-9.403999999999999165e-03,-1.489399999999999925e-02,-1.245500000000000079e-02,6.679999999999999740e-04,-6.279999999999999992e-03,-1.398199999999999964e-02,-5.321000000000000209e-03,-1.588300000000000128e-02,-1.777199999999999960e-02,-9.403999999999999165e-03,-9.820000000000000170e-04,-1.204500000000000015e-02,-8.956999999999999684e-03,-3.781000000000000073e-03,-7.242000000000000173e-03,-5.013000000000000095e-03,-1.068000000000000026e-02,-7.531999999999999633e-03,-1.042399999999999924e-02,-1.988499999999999990e-02,-1.064900000000000048e-02,-1.031100000000000072e-02,-5.680000000000000153e-03,-1.148599999999999968e-02,-1.266100000000000038e-02,-1.398399999999999990e-02,-6.156000000000000014e-03,-1.883699999999999958e-02,-8.840000000000000635e-03,-7.761999999999999802e-03,-8.663999999999999826e-03,-4.825000000000000296e-03,-6.579999999999999911e-03,-1.822299999999999962e-02,-2.223500000000000129e-02,-9.922999999999999529e-03,-1.288699999999999915e-02,-1.269099999999999916e-02,-5.956000000000000356e-03,-1.058599999999999992e-02,-1.070899999999999977e-02,-8.666999999999999357e-03,-1.153900000000000065e-02,-1.408500000000000030e-02,-3.024999999999999911e-03,-1.237700000000000085e-02,-1.477700000000000020e-02,-2.870999999999999854e-03,-1.979399999999999910e-02,-9.513999999999999888e-03,-1.094099999999999934e-02,-4.151000000000000176e-03,-4.895000000000000046e-03,-1.460599999999999919e-02,-1.223899999999999988e-02,-1.375700000000000013e-02,-8.113000000000000420e-03,-1.305000000000000084e-02,-9.910000000000000406e-03,-2.380000000000000171e-02,-1.664799999999999960e-02,-1.253100000000000047e-02,-4.279999999999999950e-03,-7.532999999999999766e-03,-1.070899999999999977e-02,-1.807100000000000026e-02,-8.210999999999999549e-03,-3.448999999999999809e-03,-2.657000000000000074e-03,-9.129999999999999227e-03,-1.784399999999999875e-02,-1.284899999999999931e-02,-2.207299999999999887e-02,-7.189000000000000078e-03,-8.040000000000000271e-03,-1.031600000000000052e-02,-1.912300000000000111e-02,-1.126800000000000024e-02,-1.663800000000000001e-02,-7.480999999999999803e-03,-9.081000000000000530e-03,-8.411999999999999339e-03,-1.315799999999999956e-02,-1.007899999999999942e-02,-9.020000000000000240e-03,-1.253100000000000047e-02,-5.533999999999999857e-03,-6.673000000000000112e-03,-3.696000000000000067e-03,-3.010000000000000089e-03,-9.178999999999999659e-03,-1.664099999999999954e-02,-9.180999999999999925e-03,-1.746699999999999989e-02,-1.687100000000000058e-02,-7.250000000000000368e-03,-1.313800000000000037e-02,-1.429399999999999941e-02,-2.651999999999999844e-03,-1.405799999999999932e-02,-1.551199999999999975e-02,-7.530000000000000235e-03,-1.391700000000000055e-02,-9.289000000000000382e-03,-1.087199999999999972e-02,-1.362900000000000049e-02,-1.062199999999999950e-02,-1.984700000000000006e-02,5.700000000000000205e-03,-2.520000000000000104e-03,-9.020000000000000240e-04,-1.611800000000000038e-02,-1.740699999999999886e-02,-1.077299999999999959e-02,-5.146999999999999666e-03,-1.459399999999999933e-02,-9.308000000000000301e-03,-8.170000000000000179e-03,-8.604999999999999802e-03,-1.314300000000000017e-02,-1.512600000000000056e-02,-1.430700000000000027e-02,-2.196100000000000135e-02,-3.158000000000000217e-03,-1.568200000000000149e-02,-1.543100000000000027e-02,-2.253099999999999895e-02,-5.930999999999999640e-03,-1.307600000000000082e-02,-1.237300000000000032e-02,-1.822800000000000115e-02,-1.491699999999999970e-02,-1.021400000000000086e-02,-1.645399999999999988e-02,-5.597999999999999678e-03,-1.368499999999999925e-02,-7.822000000000000827e-03,-1.519799999999999970e-02,-1.596099999999999949e-02,-6.858999999999999646e-03,-8.335999999999999660e-03,-6.278999999999999859e-03,-7.200999999999999936e-03,-1.828000000000000111e-02,-9.060000000000000345e-03,-1.128999999999999969e-02,-1.059200000000000072e-02,-1.561899999999999920e-02,-1.681900000000000062e-02,-1.780699999999999991e-02,-1.098299999999999971e-02,-2.067999999999999960e-03,-1.003199999999999925e-02,-1.512900000000000009e-02,-1.466000000000000072e-03,-6.700000000000000226e-03,-1.089999999999999997e-02,-2.605100000000000124e-02,-7.195000000000000007e-03,-2.802299999999999930e-02,-1.803499999999999895e-02,-2.367999999999999879e-03,-3.464000000000000065e-03,-1.123000000000000040e-02,-1.482100000000000084e-02,-3.444000000000000013e-03,-1.470100000000000053e-02,2.059999999999999928e-04,-4.836000000000000021e-03,-5.650999999999999773e-03,-5.811000000000000193e-03,-9.482000000000000844e-03,-2.052000000000000005e-02,-1.015399999999999983e-02,-5.474999999999999832e-03,-1.732500000000000012e-02,-5.340000000000000129e-03,-1.428600000000000009e-02,-6.566999999999999921e-03,-1.753100000000000144e-02,6.000000000000000152e-05,-1.044899999999999995e-02,-6.906999999999999945e-03,-1.855700000000000058e-02,-7.434999999999999769e-03,-4.009999999999999676e-03,-1.002399999999999992e-02,-1.356100000000000014e-02,-1.430799999999999954e-02,-1.360100000000000024e-02,-1.636800000000000060e-02,-1.307700000000000008e-02,-1.429199999999999915e-02,-6.973000000000000032e-03,1.696999999999999941e-03,-1.755500000000000116e-02,-1.208599999999999952e-02,-1.626999999999999974e-02,-2.229799999999999838e-02,-2.268299999999999830e-02,-1.482200000000000011e-02,-2.020699999999999927e-02,-3.749999999999999861e-03,-1.429199999999999915e-02,-2.019999999999999921e-02,-1.816299999999999859e-02,-1.137600000000000069e-02,-1.330699999999999938e-02,-1.814199999999999841e-02,-1.081400000000000070e-02,-1.198899999999999966e-02,-1.232199999999999962e-02,-1.679599999999999843e-02,-9.924000000000000529e-03,-1.201299999999999937e-02,-2.051700000000000051e-02,-1.886799999999999936e-02,-1.093599999999999954e-02,-2.620700000000000113e-02,-1.883699999999999958e-02,-1.543399999999999980e-02,-7.386000000000000204e-03,-1.807699999999999932e-02,-1.165700000000000069e-02,-1.626999999999999974e-02,-1.405900000000000032e-02,-7.988999999999999574e-03,-1.672099999999999975e-02,-8.389999999999999888e-03,-8.496999999999999345e-03,-1.672600000000000128e-02,-1.233199999999999921e-02,-3.438000000000000084e-03,-1.806999999999999926e-02,-1.394699999999999933e-02,-9.351999999999999202e-03,-9.743999999999999190e-03,-9.740999999999999659e-03,-1.566599999999999937e-02,-9.405999999999999431e-03,-1.702100000000000141e-02,-1.069699999999999991e-02,-1.724600000000000091e-02,-1.452499999999999972e-02,-1.407599999999999997e-02,-1.786099999999999841e-02,-1.238799999999999971e-02,-2.425300000000000025e-02,-1.762100000000000125e-02,-1.573000000000000093e-02,-1.123000000000000040e-02,-1.891899999999999832e-02,-1.732200000000000059e-02,-2.744399999999999964e-02,-1.482200000000000011e-02,-1.260099999999999935e-02,-1.941800000000000123e-02,-1.821800000000000155e-02,-1.818099999999999924e-02,-1.334800000000000049e-02,-1.467300000000000028e-02,-9.806999999999999745e-03,-1.061299999999999917e-02,-2.066799999999999887e-02,-1.435900000000000024e-02,-1.731800000000000006e-02,-1.574899999999999911e-02,-1.069900000000000018e-02,-1.288599999999999988e-02,-6.309999999999999637e-03,-3.256999999999999913e-03,-2.094000000000000028e-02,-1.300899999999999973e-02,-1.937900000000000039e-02,-2.006000000000000144e-02,-1.482200000000000011e-02,-2.574800000000000005e-02,-2.031700000000000172e-02,-7.660000000000000142e-03,-2.127799999999999830e-02,-1.679599999999999843e-02,-1.956300000000000053e-02,-7.874000000000000790e-03,-6.557999999999999594e-03,-2.052800000000000111e-02,-1.151800000000000046e-02,-2.494299999999999989e-02,-1.068000000000000026e-02,-1.405900000000000032e-02,-1.784600000000000075e-02,-3.272200000000000109e-02,-1.633899999999999936e-02,-1.904199999999999990e-02,-2.193499999999999964e-02,-1.428699999999999935e-02,-4.891000000000000382e-03,-1.437199999999999936e-02,-2.893099999999999838e-02,-2.997299999999999964e-02,-1.840599999999999875e-02,-1.792799999999999949e-02,-1.382899999999999928e-02,-2.680899999999999950e-02,-1.851699999999999874e-02,-1.852300000000000127e-02,-2.189800000000000080e-02,-1.619299999999999906e-02,-2.225999999999999854e-02,-6.733000000000000269e-03,-1.582000000000000073e-02,-2.385999999999999927e-02,-3.191200000000000286e-02,-2.324899999999999883e-02,-1.126399999999999971e-02,-2.523399999999999949e-02,-2.428699999999999956e-02,-2.448399999999999882e-02,-2.126700000000000118e-02,-1.988699999999999843e-02,-1.144399999999999931e-02,-1.877500000000000002e-02,-1.013499999999999991e-02,-3.031500000000000167e-02,-1.390300000000000043e-02,-1.777600000000000013e-02,-2.813900000000000082e-02,-3.190300000000000080e-02,-2.379500000000000018e-02,-1.413099999999999946e-02,-2.535099999999999854e-02,-2.314499999999999891e-02,-2.465699999999999836e-02,-2.906200000000000103e-02,-2.134099999999999886e-02,-1.544000000000000060e-02,-2.006000000000000144e-02,-2.927499999999999894e-02,-1.215100000000000034e-02,-9.119000000000000369e-03,-2.499799999999999939e-02,-1.881800000000000139e-02,-1.798500000000000099e-02,-2.025199999999999917e-02,-1.460099999999999940e-02,-3.341899999999999732e-02,-2.732199999999999906e-02,-1.823299999999999921e-02,-1.398399999999999990e-02,-2.025400000000000117e-02,-2.084799999999999848e-02,-1.458800000000000027e-02,-2.580500000000000155e-02,-2.315000000000000044e-02,-2.300100000000000061e-02,-2.304399999999999851e-02,-2.031000000000000166e-02,-2.883399999999999852e-02,-1.627800000000000080e-02,-2.375999999999999987e-02,-2.893199999999999938e-02,-1.337400000000000047e-02,-2.333999999999999964e-02,-3.020300000000000068e-02,-2.256400000000000072e-02,-2.075499999999999914e-02,-1.244499999999999947e-02,-1.535800000000000012e-02,-1.489599999999999952e-02,-2.038200000000000081e-02,-2.402500000000000122e-02,-2.065900000000000028e-02,-2.085100000000000148e-02,-2.437999999999999889e-02,-2.199299999999999866e-02,-2.501099999999999851e-02,-2.360800000000000051e-02,-1.620500000000000065e-02,-1.237399999999999958e-02,-3.293399999999999800e-02,-1.702800000000000147e-02,-2.253099999999999895e-02,-3.134399999999999686e-02,-1.355699999999999961e-02,-2.122599999999999834e-02,-1.928900000000000059e-02,-3.171999999999999820e-02,-1.651299999999999990e-02,-2.291500000000000134e-02,-2.419999999999999929e-02,-2.755099999999999910e-02,-1.763400000000000037e-02,-2.780099999999999932e-02,-2.451700000000000060e-02,-3.145400000000000279e-02,-2.684100000000000028e-02,-1.724099999999999938e-02,-2.176099999999999909e-02,-1.537700000000000004e-02,-1.840400000000000022e-02,-1.512900000000000009e-02,-2.662399999999999836e-02,-1.596900000000000056e-02,-1.777700000000000113e-02,-7.759000000000000272e-03,-1.159499999999999940e-02,2.661000000000000171e-03,-1.282499999999999959e-02,-3.634799999999999837e-02,-2.408899999999999930e-02,-2.330799999999999886e-02,-1.864100000000000132e-02,-2.198100000000000054e-02,1.136019999999999947e-01,-1.731500000000000053e-02,-1.285099999999999958e-02,-2.031700000000000172e-02,-1.881999999999999992e-02,-2.930900000000000172e-02,-2.006600000000000050e-02,-2.353299999999999836e-02,-3.122300000000000075e-02,-2.353399999999999936e-02,-9.239000000000000684e-03,-2.710900000000000115e-02,-1.595600000000000143e-02,-2.739300000000000068e-02,-2.704099999999999906e-02,-1.671200000000000116e-02,-2.116099999999999925e-02,-1.262199999999999954e-02,-1.864100000000000132e-02,1.660999999999999933e-03,-3.538899999999999685e-02,-1.610899999999999832e-02,-2.402100000000000068e-02,-3.007999999999999910e-02,-2.460800000000000140e-02,-1.709000000000000102e-02,-5.095999999999999835e-03,-2.279899999999999982e-02,-2.501099999999999851e-02,-2.434700000000000059e-02,-1.835499999999999979e-02,-1.552699999999999914e-02,-2.778399999999999967e-02,-2.812800000000000022e-02,-1.672099999999999975e-02,-2.480500000000000066e-02,-1.938899999999999998e-02,-2.330000000000000127e-02,-2.607900000000000149e-02,-2.419299999999999923e-02,-2.002500000000000113e-02,-2.487599999999999881e-02,-1.989000000000000143e-02,-2.179800000000000140e-02,-2.166399999999999923e-02,-3.065000000000000016e-02,-4.166899999999999771e-02,-3.462699999999999806e-02,-2.335299999999999876e-02,-3.393899999999999695e-02,-2.766499999999999862e-02,-2.789099999999999913e-02,-2.256400000000000072e-02,-1.329299999999999926e-02,-3.480899999999999966e-02,-1.221599999999999943e-02,-1.951599999999999863e-02,-2.493099999999999830e-02,-2.781000000000000139e-02,-2.198100000000000054e-02,-3.495899999999999702e-02,-2.282599999999999907e-02,-3.159900000000000209e-02,-2.371300000000000144e-02,-2.301999999999999880e-02,-1.835900000000000032e-02,-2.593900000000000025e-02,-1.726099999999999857e-02,-2.230599999999999944e-02,-3.544200000000000128e-02,-3.450899999999999801e-02,-2.347399999999999834e-02,-2.582699999999999926e-02,-2.846900000000000125e-02,-3.113700000000000148e-02,-3.009300000000000169e-02,-1.619599999999999859e-02,-2.653099999999999903e-02,-2.006600000000000050e-02,-2.097600000000000159e-02,-2.203300000000000050e-02,-2.496599999999999861e-02,-2.011500000000000093e-02,-2.321600000000000052e-02,-2.905200000000000143e-02,-2.627099999999999921e-02,-2.289100000000000162e-02,-2.117399999999999838e-02,-3.032400000000000026e-02,-2.316199999999999856e-02,-2.157200000000000090e-02,-3.008900000000000116e-02,-1.846599999999999978e-02,-1.965700000000000086e-02,-2.829200000000000118e-02,-2.512199999999999850e-02,-2.222899999999999876e-02,-2.276900000000000104e-02,-2.984900000000000053e-02,-3.444400000000000239e-02,-2.006000000000000144e-02,-3.099500000000000172e-02,-1.757799999999999987e-02,-1.822000000000000008e-02,-1.799500000000000058e-02,-1.513699999999999941e-02,-3.031500000000000167e-02,-2.985900000000000012e-02,-3.101900000000000143e-02,-3.480899999999999966e-02,-2.085400000000000101e-02,-2.047600000000000114e-02,-2.028900000000000148e-02,-1.489399999999999925e-02,-2.284800000000000025e-02,-3.427800000000000291e-02,-1.262199999999999954e-02,-3.076800000000000021e-02,-1.946499999999999966e-02,-2.998500000000000124e-02,-2.490699999999999859e-02,-3.077299999999999827e-02,-2.743100000000000052e-02,-2.487199999999999828e-02,-2.006000000000000144e-02,-3.213400000000000284e-02,-2.619900000000000007e-02,-4.597199999999999898e-02,-2.433199999999999946e-02,1.239959999999999951e-01,-1.831999999999999948e-02,-3.263900000000000134e-02,-1.679999999999999896e-02,-2.466600000000000042e-02,-1.314799999999999996e-02,-2.061699999999999991e-02,-3.212799999999999684e-02,-2.950600000000000098e-02,-2.691199999999999842e-02,-2.334299999999999917e-02,-3.020000000000000115e-02,-1.896400000000000169e-02,-2.940399999999999958e-02,-2.176099999999999909e-02,-3.135700000000000293e-02,-2.698499999999999857e-02,-1.604900000000000077e-02,-3.019499999999999962e-02,-2.858300000000000077e-02,-2.424899999999999972e-02,-2.883900000000000005e-02,-1.333809999999999996e-01,-2.940399999999999958e-02,-2.708899999999999850e-02,-2.674100000000000088e-02,-3.398700000000000332e-02,-2.927499999999999894e-02,-3.031500000000000167e-02,-2.421900000000000094e-02,-3.464899999999999924e-02,-3.236900000000000194e-02,-2.460700000000000040e-02,-2.665199999999999861e-02,-1.992599999999999927e-02,-1.636400000000000007e-02,-2.476199999999999929e-02,-3.123700000000000088e-02,-2.858499999999999930e-02,-2.176399999999999862e-02,-3.371500000000000191e-02,-3.076800000000000021e-02,-1.776700000000000154e-02,-2.189800000000000080e-02,-2.848900000000000043e-02,-3.559600000000000264e-02,-1.659899999999999917e-02,-2.882399999999999893e-02,-2.851300000000000015e-02,-2.222899999999999876e-02,-3.042699999999999919e-02,-3.406800000000000106e-02,-3.145099999999999979e-02,-2.025400000000000117e-02,-3.563800000000000301e-02,-2.861400000000000055e-02,-3.457899999999999863e-02,-2.627399999999999874e-02,-3.437799999999999884e-02,-3.310899999999999954e-02,-2.627399999999999874e-02,-2.499399999999999886e-02,-2.038999999999999840e-02,-2.847500000000000031e-02,-3.383499999999999702e-02,-3.099700000000000025e-02,-3.370900000000000285e-02,-2.202700000000000144e-02,-1.720100000000000101e-02,-3.470999999999999780e-02,-2.242800000000000002e-02,-2.685299999999999840e-02,-2.961799999999999849e-02,-2.675500000000000100e-02,-2.157200000000000090e-02,-3.636899999999999855e-02,-2.723100000000000173e-02,-2.013900000000000065e-02,-2.539299999999999891e-02,-3.635000000000000037e-02,-1.975100000000000119e-02,-2.441600000000000020e-02,-3.615800000000000264e-02,-2.778200000000000114e-02,-2.963100000000000109e-02,-2.627399999999999874e-02,-3.110800000000000023e-02,-2.261700000000000169e-02,-3.246799999999999686e-02,-3.417599999999999805e-02,-2.698499999999999857e-02,-2.571199999999999875e-02,-1.401999999999999948e-02,-2.440300000000000108e-02,-2.603700000000000112e-02,-2.291500000000000134e-02,-3.112499999999999989e-02,-3.020000000000000115e-02,-2.599999999999999881e-02,-2.025899999999999923e-02,-2.506500000000000047e-02,-2.745300000000000171e-02,-2.755099999999999910e-02,-2.314499999999999891e-02,-2.465600000000000083e-02,-1.978399999999999950e-02,-1.468500000000000014e-02,-3.260300000000000004e-02,-2.607200000000000142e-02,-2.620700000000000113e-02,-3.122300000000000075e-02,-2.920499999999999832e-02,-2.882200000000000040e-02,-2.245700000000000127e-02,-2.088699999999999932e-02,-3.168499999999999789e-02,-2.663300000000000042e-02,-2.848600000000000090e-02,-2.199100000000000013e-02,-1.754899999999999863e-02,-2.872100000000000000e-02,-2.826499999999999846e-02,-3.090000000000000038e-02,-3.190599999999999686e-02,-2.916099999999999942e-02,-2.383800000000000155e-02,-2.302200000000000080e-02,-3.763999999999999985e-02,-2.593900000000000025e-02,-1.832100000000000048e-02,-1.590300000000000047e-02,-2.455500000000000044e-02,-2.616699999999999929e-02,-2.335100000000000023e-02,-1.949499999999999844e-02,-3.329399999999999721e-02,-1.775399999999999895e-02,-3.241999999999999743e-02,-2.476899999999999935e-02,-4.640999999999999986e-02,-2.097600000000000159e-02,-3.882900000000000240e-02,-2.492099999999999871e-02,-2.641500000000000098e-02,-8.385999999999999358e-03,-2.451700000000000060e-02,-2.731799999999999853e-02,-1.986999999999999877e-02,-2.139800000000000035e-02,-2.118499999999999897e-02,-3.125900000000000206e-02,-2.697000000000000092e-02,-2.075499999999999914e-02,-3.122000000000000122e-02,-7.088999999999999815e-03,-1.116600000000000058e-02,-2.366700000000000054e-02,-2.699599999999999916e-02,-2.907300000000000162e-02,-3.080000000000000099e-02,-1.776000000000000148e-02,-2.697499999999999898e-02,-3.146299999999999791e-02,-2.616299999999999876e-02,-1.650799999999999837e-02,-2.273400000000000074e-02,-2.389300000000000104e-02,-2.812699999999999922e-02,-2.685299999999999840e-02,-1.995299999999999851e-02,-2.334500000000000117e-02,-3.212700000000000278e-02,-2.697499999999999898e-02,-2.997400000000000064e-02,-1.919300000000000173e-02,-3.252300000000000330e-02,-2.353399999999999936e-02,-4.059700000000000114e-02,-3.076200000000000115e-02,-3.415100000000000080e-02,-3.068399999999999947e-02,-2.826199999999999893e-02,-1.618700000000000000e-02,-3.443000000000000227e-02,-2.453500000000000125e-02,-3.031000000000000014e-02,-3.009300000000000169e-02,-2.859300000000000036e-02,-1.854599999999999999e-02,-1.718099999999999836e-02,-2.545800000000000146e-02,-1.911699999999999858e-02,-3.048199999999999868e-02,-3.058699999999999961e-02,-2.781099999999999892e-02,-9.289100000000000135e-02,-3.270100000000000090e-02,-2.603700000000000112e-02,-2.800700000000000064e-02,-1.260000000000000009e-02,-2.268600000000000130e-02,-3.037000000000000116e-02,-1.934699999999999961e-02,-2.757599999999999982e-02,-1.543100000000000027e-02,-2.027100000000000082e-02,-1.898499999999999840e-02,-1.650300000000000031e-02,-3.253400000000000042e-02,-2.964500000000000121e-02,-2.001700000000000007e-02,-2.025199999999999917e-02,-3.395600000000000007e-02,-2.814900000000000041e-02,-2.428699999999999956e-02,-1.957100000000000159e-02,-2.028399999999999995e-02,-2.393100000000000088e-02,-3.241600000000000037e-02,-9.287999999999999381e-03,-1.803499999999999895e-02,-2.561199999999999935e-02,-2.777999999999999914e-02,-2.858499999999999930e-02,-3.375100000000000322e-02,-3.089400000000000132e-02,-1.752300000000000038e-02,-2.007799999999999863e-02,-3.480500000000000260e-02,-1.888600000000000001e-02,-2.081099999999999964e-02,-2.490500000000000005e-02,-3.249500000000000305e-02,-2.720900000000000055e-02,-1.946499999999999966e-02,-2.632699999999999971e-02,-3.167999999999999983e-02,-2.394800000000000054e-02,-2.124200000000000046e-02,-2.605100000000000124e-02,-2.883600000000000052e-02,-2.428699999999999956e-02,-2.708100000000000090e-02,-2.444899999999999851e-02,-1.696900000000000144e-02,-2.976300000000000126e-02,-3.007900000000000157e-02,-2.302999999999999839e-02,-2.506099999999999994e-02,-2.789600000000000066e-02,-2.173100000000000032e-02,-2.220499999999999904e-02,-2.429900000000000115e-02,-1.098599999999999924e-02,-2.662199999999999983e-02,-2.360399999999999998e-02,-2.324800000000000130e-02,-1.965899999999999939e-02,-2.767899999999999874e-02,-3.237000000000000294e-02,-2.667999999999999886e-02,-2.539299999999999891e-02,-2.373199999999999962e-02,-1.055000000000000035e-02,-2.222199999999999870e-02,-3.147300000000000098e-02,-1.702800000000000147e-02,-2.366199999999999901e-02,-2.263000000000000081e-02,-1.574100000000000152e-02,-2.009100000000000122e-02,-2.981800000000000075e-02,-1.260099999999999935e-02,-3.999400000000000177e-02,-2.056699999999999848e-02,-2.375999999999999987e-02,-1.527899999999999918e-02,-1.496800000000000040e-02,-2.317200000000000162e-02,-2.909000000000000127e-02,-2.607900000000000149e-02,-2.130100000000000049e-02,-1.867100000000000010e-02,-2.852599999999999927e-02,-3.022899999999999893e-02,-2.822799999999999962e-02,-2.279899999999999982e-02,-2.194400000000000170e-02,-1.198600000000000013e-02,-2.421699999999999894e-02,-2.745799999999999977e-02,-1.382800000000000001e-02,-1.542600000000000048e-02,-3.133099999999999774e-02,-2.248700000000000004e-02,-2.761600000000000166e-02,-2.357499999999999873e-02,-2.150600000000000081e-02,-2.256999999999999978e-02,-1.116600000000000058e-02,-2.107300000000000145e-02,-2.536300000000000013e-02,-2.503899999999999876e-02,-1.966499999999999845e-02,-2.600099999999999981e-02,-2.930299999999999919e-02,-1.957599999999999965e-02,-2.662899999999999989e-02,-2.652699999999999850e-02,-3.115499999999999867e-02,-3.235400000000000081e-02,-2.307499999999999829e-02,-1.626199999999999868e-02,-2.340300000000000019e-02,-3.517100000000000087e-02,-9.860000000000000708e-03,-1.709300000000000055e-02,-2.085899999999999907e-02,-2.375299999999999981e-02,-2.359100000000000086e-02,-9.128999999999999962e-03,-3.003799999999999873e-02,-2.863600000000000173e-02,-1.686500000000000152e-02,-2.189400000000000027e-02,-1.748800000000000007e-02,-1.800399999999999917e-02,-2.341100000000000125e-02,-2.134099999999999886e-02,-1.628100000000000033e-02,-2.451400000000000107e-02,-2.380000000000000171e-02,-2.135799999999999851e-02,-1.829300000000000023e-02,-2.430200000000000068e-02,-1.892699999999999938e-02,-1.306000000000000043e-02,-1.244699999999999973e-02,-2.325199999999999836e-02,-1.550699999999999995e-02,-1.618700000000000000e-02,-1.314399999999999943e-02,-2.002800000000000066e-02,-2.054100000000000023e-02,-1.814299999999999941e-02,-2.514100000000000015e-02,-2.594600000000000031e-02,-1.808900000000000091e-02,-1.992199999999999874e-02,-2.111299999999999982e-02,-1.960200000000000137e-02,-1.664500000000000007e-02,-1.648900000000000018e-02,-2.321600000000000052e-02,-2.367599999999999913e-02,-8.332000000000000864e-03,-2.977300000000000085e-02,-1.800099999999999964e-02,-3.122300000000000075e-02,-2.447699999999999876e-02,-2.996899999999999911e-02,-2.098099999999999965e-02,-3.078699999999999840e-02,-1.596399999999999902e-02,-2.320799999999999946e-02,1.190589999999999982e-01,-1.558299999999999963e-02,-2.079399999999999998e-02,-1.823299999999999921e-02,-1.513699999999999941e-02,-3.042100000000000012e-02,-2.186799999999999855e-02,-2.104100000000000067e-02,-1.872800000000000159e-02,-1.919300000000000173e-02,-2.097600000000000159e-02,-2.927700000000000094e-02,-2.167099999999999929e-02,-2.297899999999999943e-02,-2.539299999999999891e-02,-2.506500000000000047e-02,-2.390099999999999864e-02,-1.399199999999999923e-02,-2.312300000000000119e-02,-2.183799999999999977e-02,-1.891400000000000026e-02,-2.382400000000000143e-02,-1.319069999999999965e-01,-2.291500000000000134e-02,-2.824000000000000121e-02,-1.823999999999999927e-02,-2.470400000000000026e-02,-2.574200000000000099e-02,-2.052800000000000111e-02,-1.798999999999999905e-02,-2.196299999999999988e-02,-1.659800000000000164e-02,-2.021099999999999980e-02,-2.440799999999999914e-02,-2.126700000000000118e-02,-2.235399999999999887e-02,-1.059399999999999925e-02,-2.536300000000000013e-02,-3.065500000000000169e-02,-2.927799999999999847e-02,-2.536100000000000160e-02,-1.677800000000000125e-02,-1.370399999999999917e-02,-1.728999999999999981e-02,-2.163199999999999845e-02,-2.478299999999999947e-02,-2.743699999999999958e-02,-2.225500000000000048e-02,-2.318500000000000075e-02,-2.470899999999999833e-02,-1.162499999999999992e-02,-2.823799999999999921e-02,-2.008499999999999869e-02,-1.901999999999999871e-02,-2.171000000000000013e-02,-1.808200000000000085e-02,-2.102899999999999908e-02,-2.476300000000000029e-02,-2.479299999999999907e-02,-2.904299999999999937e-02,-2.584499999999999992e-02,-1.905899999999999955e-02,-1.806999999999999926e-02,-2.120899999999999869e-02,-1.542499999999999948e-02,-2.171800000000000119e-02,-2.101599999999999996e-02,-2.580899999999999861e-02,-2.916699999999999848e-02,-1.720000000000000001e-02,-7.476000000000000006e-03,-1.808900000000000091e-02,-1.360100000000000024e-02,-3.019499999999999962e-02,-2.789399999999999866e-02,-2.173100000000000032e-02,-2.533799999999999941e-02,-1.223199999999999982e-02,-2.950900000000000051e-02,-2.440900000000000014e-02,-2.640299999999999939e-02,-1.817799999999999971e-02,-2.447600000000000123e-02,-2.102100000000000149e-02,-2.302200000000000080e-02,-2.320799999999999946e-02,-1.729299999999999934e-02,-2.253700000000000148e-02,-1.645399999999999988e-02,-1.460900000000000046e-02,-2.835700000000000026e-02,-2.184699999999999837e-02,-3.225000000000000089e-02,-1.992199999999999874e-02,-1.961399999999999949e-02,-1.459599999999999960e-02,-2.111899999999999888e-02,-2.476899999999999935e-02,-1.422299999999999953e-02,-1.221700000000000043e-02,-1.771100000000000105e-02,-3.444400000000000239e-02,-3.042699999999999919e-02,-2.120899999999999869e-02,-2.317200000000000162e-02,-1.891899999999999832e-02,-9.466999999999999721e-03,-2.076599999999999974e-02,-2.189800000000000080e-02,-1.715200000000000058e-02,-3.008600000000000163e-02,-2.488500000000000087e-02,-2.675500000000000100e-02,-1.650799999999999837e-02,-1.155600000000000030e-02,-1.846599999999999978e-02,-1.989000000000000143e-02,-2.415399999999999839e-02,-2.138699999999999976e-02,-3.212799999999999684e-02,-1.978800000000000003e-02,-2.350800000000000112e-02,-1.729299999999999934e-02,-2.080399999999999958e-02,-1.817799999999999971e-02,-2.153100000000000153e-02,-1.900999999999999912e-02,-2.421699999999999894e-02,-1.025299999999999996e-02,-5.095999999999999835e-03,-1.957400000000000112e-02,-2.526000000000000120e-02,-1.643199999999999869e-02,-1.974499999999999866e-02,-2.117399999999999838e-02,-2.269399999999999890e-02,-2.094599999999999934e-02,-1.359999999999999924e-02,-1.628500000000000086e-02,-1.837899999999999950e-02,-1.800699999999999870e-02,-2.138999999999999929e-02,-1.747900000000000148e-02,-1.817799999999999971e-02,2.432999999999999833e-03,-3.618999999999999821e-03,-2.881500000000000034e-02,-2.732700000000000060e-02,-1.527899999999999918e-02,-1.481799999999999957e-02,-2.176300000000000109e-02,-1.920799999999999938e-02,-1.195300000000000008e-02,-2.919300000000000020e-02,-1.828300000000000064e-02,-1.600299999999999986e-02,-1.881000000000000076e-03,-1.974499999999999866e-02,-2.197700000000000001e-02,-1.918600000000000166e-02,-1.887799999999999895e-02,-1.924599999999999922e-02,-1.800699999999999870e-02,-1.746800000000000089e-02,-1.529499999999999957e-02,-4.566599999999999826e-02,-1.919300000000000173e-02,-1.826499999999999999e-02,-1.237100000000000005e-02,-1.688699999999999923e-02,-1.352599999999999983e-02,-1.604699999999999876e-02,-1.344899999999999915e-02,-1.329299999999999926e-02,-1.823299999999999921e-02,-1.952100000000000016e-02,-1.906300000000000008e-02,-1.613300000000000151e-02,-1.445300000000000057e-02,-9.667000000000000245e-03,-2.044899999999999843e-02,-1.659499999999999864e-02,-1.932499999999999843e-02,-2.560000000000000123e-02,-2.042700000000000071e-02,-2.607200000000000142e-02,-2.139800000000000035e-02,-2.017199999999999896e-02,-1.589199999999999988e-02,-2.116799999999999932e-02,-2.825099999999999834e-02,-2.160199999999999967e-02,-1.052499999999999963e-02,-2.881500000000000034e-02,-2.767400000000000068e-02,-2.029299999999999854e-02,-2.367599999999999913e-02,-2.015399999999999830e-02,-2.312700000000000172e-02,-2.801199999999999871e-02,-1.984700000000000006e-02,-2.465699999999999836e-02,-2.242800000000000002e-02,-1.584999999999999951e-02,-1.244699999999999973e-02,-2.696499999999999939e-02,-1.545400000000000072e-02,-1.596900000000000056e-02,-2.527499999999999886e-02,-1.230400000000000070e-02,-1.633400000000000130e-02,-9.138000000000000289e-03,-1.486900000000000027e-02,-2.863999999999999792e-03,-2.196700000000000041e-02,-2.314499999999999891e-02,-2.059599999999999972e-02,-2.157200000000000090e-02,-2.412600000000000161e-02,-2.180700000000000000e-02,-2.640599999999999892e-02,-2.117499999999999938e-02,-2.084499999999999895e-02,-2.315000000000000044e-02,-7.440000000000000432e-03,-2.464600000000000124e-02,-2.791499999999999884e-02,-2.200099999999999972e-02,-1.979699999999999863e-02,-2.057399999999999854e-02,-1.133100000000000079e-02,-2.034899999999999903e-02,-1.330699999999999938e-02,-3.065599999999999922e-02,-1.744499999999999870e-02,-2.346900000000000028e-02,-1.600299999999999986e-02,-2.488500000000000087e-02,-1.720100000000000101e-02,-1.872800000000000159e-02,-1.956000000000000100e-02,-2.088599999999999832e-02,-1.704400000000000012e-02,-1.603200000000000111e-02,-1.935399999999999968e-02,-1.661899999999999836e-02,-2.288300000000000056e-02,-2.336900000000000088e-02,-1.905000000000000096e-02,-2.417899999999999910e-02,-1.399199999999999923e-02,-2.766499999999999862e-02,-2.186799999999999855e-02,-2.409299999999999983e-02,-2.275599999999999845e-02,-2.085400000000000101e-02,-2.476899999999999935e-02,-1.961600000000000149e-02,-1.514899999999999927e-02,-2.837900000000000145e-02,-1.842399999999999941e-02,-2.212599999999999983e-02,-2.605599999999999930e-02,-2.686799999999999952e-02,-2.574800000000000005e-02,-3.010399999999999882e-02,-1.680699999999999902e-02,-2.252099999999999935e-02,-2.299199999999999855e-02,-1.167799999999999915e-02,-2.047900000000000068e-02,-2.347899999999999987e-02,-1.640899999999999997e-02,-3.159499999999999809e-02,-2.127000000000000071e-02,-3.088000000000000120e-02,-2.125099999999999906e-02,-3.064800000000000163e-02,-1.322800000000000017e-02,-3.059999999999999873e-02,-2.499699999999999839e-02,-1.584999999999999951e-02,-1.869799999999999934e-02,-2.475099999999999870e-02,-1.798999999999999905e-02,-2.360800000000000051e-02,-1.988699999999999843e-02,-2.394800000000000054e-02,-2.805200000000000055e-02,-1.864700000000000038e-02,-1.813400000000000081e-02,-2.369800000000000031e-02,-1.313100000000000031e-02,-2.055600000000000135e-02,-1.911699999999999858e-02,-2.591999999999999860e-02,-2.393999999999999947e-02,-2.405499999999999999e-02,-1.928099999999999953e-02,-3.048199999999999868e-02,-3.085399999999999948e-02,-1.886200000000000029e-02,-2.763200000000000031e-02,-2.767700000000000021e-02,-2.076899999999999927e-02,-2.732400000000000106e-02,-2.312600000000000072e-02,-1.114200000000000086e-02,-2.476899999999999935e-02,-3.308599999999999736e-02,-2.476400000000000129e-02,-2.359800000000000092e-02,-8.340999999999999456e-03,-2.394800000000000054e-02,-3.062099999999999891e-02,-2.346499999999999975e-02,-1.701899999999999941e-02,-2.559000000000000163e-02,-2.100899999999999990e-02,-1.798500000000000099e-02,-2.523500000000000049e-02,-1.980399999999999869e-02,-2.172299999999999925e-02,-2.405399999999999899e-02,-2.253900000000000001e-02,-2.121599999999999875e-02,-2.746900000000000036e-02,-3.526900000000000174e-02,-2.359899999999999845e-02,-3.308599999999999736e-02,-2.149900000000000075e-02,-2.499399999999999886e-02,-3.061200000000000032e-02,-2.652399999999999897e-02,-2.028599999999999848e-02,-1.933899999999999855e-02,-2.640100000000000086e-02,-4.018100000000000144e-02,-2.124699999999999853e-02,-3.276199999999999946e-02,-1.891699999999999979e-02,-1.651299999999999990e-02,-2.124699999999999853e-02,-2.147599999999999856e-02,-2.133900000000000033e-02,-2.781099999999999892e-02,-2.171000000000000013e-02,-3.570299999999999863e-02,-8.724000000000000851e-03,-2.605599999999999930e-02,-2.071800000000000030e-02,-3.077299999999999827e-02,-3.652699999999999697e-02,-3.292300000000000088e-02,-1.993299999999999933e-02,-2.452299999999999966e-02,-2.852000000000000021e-02,-2.768500000000000127e-02,-2.908300000000000121e-02,-2.604199999999999918e-02,-1.678100000000000078e-02,-3.579000000000000237e-02,-2.267500000000000071e-02,-3.812299999999999717e-02,-1.761599999999999971e-02,-2.605499999999999830e-02,-2.677300000000000166e-02,-2.112800000000000095e-02,-2.534600000000000047e-02,-2.732100000000000153e-02,-2.294300000000000159e-02,-2.501099999999999851e-02,-3.089099999999999832e-02,-2.135599999999999998e-02,-3.112900000000000042e-02,-2.743699999999999958e-02,-2.895100000000000104e-02,-2.918199999999999961e-02,-1.775399999999999895e-02,-1.918699999999999919e-02,-2.557500000000000051e-02,-2.038200000000000081e-02,-2.743699999999999958e-02,-2.422200000000000047e-02,-3.360799999999999899e-02,-2.479299999999999907e-02,-2.873500000000000013e-02,-2.556999999999999898e-02,-2.580899999999999861e-02,-3.035600000000000104e-02,-2.382400000000000143e-02,-2.210799999999999918e-02,-2.720900000000000055e-02,-3.533900000000000236e-02,-3.829799999999999871e-02,-3.031500000000000167e-02,-3.332399999999999946e-02,-3.266000000000000153e-02,-3.769299999999999734e-02,-1.878200000000000008e-02,-3.172900000000000026e-02,-2.685200000000000087e-02,-2.327299999999999855e-02,-2.021900000000000086e-02,-2.457399999999999862e-02,-1.860500000000000001e-02,-3.350100000000000300e-02,-2.766499999999999862e-02,-1.697099999999999997e-02,-2.103599999999999914e-02,-2.219399999999999845e-02,-3.596499999999999697e-02,-2.512199999999999850e-02,-3.422499999999999848e-02,-3.156899999999999984e-02,-3.088000000000000120e-02,-2.203300000000000050e-02,-3.337199999999999889e-02,-2.686799999999999952e-02,-3.318900000000000322e-02,-2.158399999999999902e-02,-2.825099999999999834e-02,-2.289499999999999869e-02,-2.708299999999999944e-02,-2.351900000000000171e-02,-1.306000000000000043e-02,-2.167099999999999929e-02,-3.495899999999999702e-02,-3.371600000000000291e-02,-3.271099999999999702e-02,-1.199099999999999992e-02,-3.582599999999999674e-02,-2.964500000000000121e-02,-2.291500000000000134e-02,-2.396500000000000019e-02,-2.189800000000000080e-02,-2.814099999999999935e-02,-3.157100000000000184e-02,-2.962599999999999956e-02,-2.343500000000000097e-02,-2.871299999999999894e-02,-2.928899999999999906e-02,-1.984700000000000006e-02,-2.908300000000000121e-02,-1.776000000000000148e-02,-3.214000000000000190e-02,-1.900400000000000006e-02,-2.928300000000000000e-02,-2.653099999999999903e-02,-2.125799999999999912e-02,-2.057399999999999854e-02,-2.711600000000000121e-02,-1.627800000000000080e-02,-2.312300000000000119e-02,-2.523900000000000102e-02,-2.143400000000000166e-02,-1.877600000000000102e-02,-2.126700000000000118e-02,-2.905699999999999950e-02,-9.573999999999999178e-03,-2.025899999999999923e-02,-2.760999999999999913e-02,-3.708700000000000191e-02,-3.020799999999999874e-02,-1.527700000000000065e-02,-1.999099999999999835e-02,-1.835499999999999979e-02,-2.291299999999999934e-02,-2.731799999999999853e-02,-2.492099999999999871e-02,-1.709600000000000009e-02,-3.190300000000000080e-02,-2.117499999999999938e-02,-3.246799999999999686e-02,-2.181900000000000159e-02,-2.070800000000000071e-02,-1.644500000000000128e-02,-2.951700000000000157e-02,-1.909399999999999986e-02,-2.881500000000000034e-02,-2.284500000000000072e-02,-2.801999999999999977e-02,-2.594600000000000031e-02,-2.406099999999999905e-02,-2.195799999999999835e-02,-2.743699999999999958e-02,-1.382899999999999928e-02,-2.373600000000000015e-02,-1.823999999999999927e-02,-2.501099999999999851e-02,-1.974300000000000013e-02,-2.015399999999999830e-02,-1.829599999999999976e-02,-2.519199999999999912e-02,-2.130100000000000049e-02,-3.156300000000000078e-02,-2.709500000000000103e-02,-2.361699999999999910e-02,-2.953300000000000022e-02,-2.766700000000000062e-02,-1.978800000000000003e-02,-2.337900000000000048e-02,-2.376199999999999840e-02,-2.271499999999999908e-02,-2.156900000000000137e-02,-2.356799999999999867e-02,-2.767899999999999874e-02,-1.198600000000000013e-02,-2.237400000000000153e-02,-1.969900000000000123e-02,-2.581400000000000014e-02,-2.147800000000000056e-02,-2.928300000000000000e-02,-2.088599999999999832e-02,-2.873900000000000066e-02,-3.157399999999999790e-02,-1.987099999999999977e-02,-2.357499999999999873e-02,-2.385699999999999973e-02,-1.987999999999999837e-02,-2.108099999999999904e-02,-1.512900000000000009e-02,-1.643199999999999869e-02,-2.034899999999999903e-02,-1.732900000000000065e-02,-3.508499999999999813e-02,-1.846599999999999978e-02,-1.648700000000000165e-02,-3.112900000000000042e-02,-2.470899999999999833e-02,-2.733000000000000013e-02,-2.245700000000000127e-02,-2.061699999999999991e-02,-1.900999999999999912e-02,-2.074799999999999908e-02,-1.497899999999999926e-02,-2.116499999999999979e-02,-3.428500000000000297e-02,-3.349300000000000194e-02,-2.759199999999999847e-02,-1.744499999999999870e-02,-1.152700000000000079e-02,-2.061699999999999991e-02,-1.498000000000000026e-02,-2.813099999999999976e-02,-2.460899999999999893e-02,-2.350199999999999859e-02,-2.415399999999999839e-02,-1.256400000000000051e-02,-2.713000000000000134e-02,-1.649400000000000172e-02,-2.432099999999999887e-02,-1.238700000000000044e-02,-2.186199999999999949e-02,-1.562900000000000053e-02,-2.997400000000000064e-02,-1.680699999999999902e-02,-2.045999999999999902e-02,-2.087299999999999919e-02,-2.456699999999999856e-02,-2.278200000000000017e-02,-2.308699999999999988e-02,-2.085899999999999907e-02,-2.373199999999999962e-02,-2.197700000000000001e-02,-2.047600000000000114e-02,-1.002999999999999985e-03,-3.146899999999999697e-02,-1.932499999999999843e-02,-2.398600000000000038e-02,-1.797599999999999892e-02,-2.116499999999999979e-02,-1.421099999999999967e-02,-1.736299999999999996e-02,-1.680699999999999902e-02,-2.153100000000000153e-02,-1.475300000000000049e-02,-3.180299999999999794e-02,-1.748800000000000007e-02,-2.193499999999999964e-02,-1.559400000000000022e-02,-1.421500000000000020e-02,-1.852600000000000080e-02,-2.240199999999999830e-02,-2.734299999999999925e-02,-2.244700000000000167e-02,-2.120899999999999869e-02,-2.374499999999999875e-02,-2.327999999999999861e-02,-3.293800000000000200e-02,-2.447600000000000123e-02,-2.411900000000000155e-02,-1.512400000000000029e-02,-3.262799999999999728e-02,-1.732500000000000012e-02,-2.294799999999999965e-02,-5.650999999999999773e-03,-2.464600000000000124e-02,-1.529400000000000030e-02,-1.928099999999999953e-02,-2.385699999999999973e-02,-2.595199999999999937e-02,-2.424700000000000119e-02,-1.785899999999999987e-02,-6.962999999999999572e-03,-3.394300000000000095e-02,-1.969299999999999870e-02,-1.711499999999999827e-02,-1.453899999999999984e-02,-1.198600000000000013e-02,-2.239500000000000171e-02,-1.551499999999999928e-02,-2.432099999999999887e-02,-2.084499999999999895e-02,-1.837899999999999950e-02,-1.898299999999999987e-02,-2.585000000000000145e-02,-2.194400000000000170e-02,-3.206400000000000222e-02,-2.430300000000000168e-02,-1.437199999999999936e-02,-1.098099999999999944e-02,-1.815699999999999953e-02,-1.872800000000000159e-02,-1.646299999999999847e-02,-2.895100000000000104e-02,-2.393400000000000041e-02,-2.849000000000000143e-02,-1.899400000000000047e-02,-2.179899999999999893e-02,-2.940399999999999958e-02,-2.224100000000000035e-02,-2.348000000000000087e-02,-1.207699999999999919e-02,-2.280499999999999888e-02,-1.275899999999999951e-02,-1.191500000000000024e-02,-2.392700000000000035e-02,-1.951599999999999863e-02,-1.590700000000000100e-02,-1.628100000000000033e-02,-2.038999999999999840e-02,-1.881899999999999892e-02,-1.260799999999999942e-02,-2.088599999999999832e-02,-1.489599999999999952e-02,-2.444599999999999898e-02,-1.391099999999999975e-02,-1.565899999999999931e-02,-1.926999999999999894e-02,-1.035999999999999942e-02,-2.125799999999999912e-02,-1.062199999999999950e-02,-1.679800000000000043e-02,-2.561199999999999935e-02,-2.476899999999999935e-02,-1.672999999999999834e-02,-1.809499999999999997e-02,-2.190399999999999986e-02,-2.102100000000000149e-02,-5.775999999999999884e-03,-1.956300000000000053e-02,-2.502000000000000057e-02,-1.535800000000000012e-02,-1.777099999999999860e-02,-1.582000000000000073e-02,-2.052800000000000111e-02,-1.168600000000000021e-02,-1.815299999999999900e-02,-2.239500000000000171e-02,-1.633499999999999883e-02,-1.398399999999999990e-02,-1.807699999999999932e-02,-1.703299999999999953e-02,-2.061699999999999991e-02,-2.314400000000000138e-02,-1.276300000000000004e-02,-1.725799999999999904e-02,-2.212599999999999983e-02,-1.785899999999999987e-02,-2.411900000000000155e-02,-2.333999999999999964e-02,-2.256999999999999978e-02,-6.583000000000000310e-03,-1.853499999999999939e-02,-3.020300000000000068e-02,-1.932400000000000090e-02,-1.946499999999999966e-02,-1.619299999999999906e-02,-9.575000000000000178e-03,-1.436800000000000056e-02,-2.025400000000000117e-02,-6.360000000000000202e-03,-1.664099999999999954e-02,-1.527899999999999918e-02,-1.642700000000000063e-02,-1.672099999999999975e-02,-2.421900000000000094e-02,-9.695000000000000492e-03,-2.653099999999999903e-02,-2.619600000000000053e-02,-2.017199999999999896e-02,-2.344100000000000003e-02,-2.510000000000000078e-02,-2.455900000000000097e-02,-3.076800000000000021e-02,-1.368499999999999925e-02,-1.006899999999999983e-02,-9.315000000000000363e-03,-1.452200000000000019e-02,-1.750900000000000026e-02,-3.031500000000000167e-02,-3.508000000000000007e-02,-1.405600000000000079e-02,-2.181400000000000006e-02,-2.383899999999999908e-02,-2.905699999999999950e-02,-1.923499999999999863e-02,-1.107499999999999978e-02,-1.712299999999999933e-02,-1.438099999999999969e-02,-1.937900000000000039e-02,-6.844000000000000257e-03,-2.847900000000000084e-02,-1.094099999999999934e-02,-1.384699999999999993e-02,-2.234500000000000028e-02,-1.937900000000000039e-02,-2.117399999999999838e-02,-2.674100000000000088e-02,-2.167099999999999929e-02,-1.144300000000000005e-02,-1.505399999999999967e-02,-1.110000000000000049e-02,-2.094000000000000028e-02,-1.994800000000000045e-02,-1.956799999999999859e-02,-2.703300000000000147e-02,-6.001000000000000258e-03,-1.789400000000000018e-02,-7.766999999999999599e-03,-1.699099999999999916e-02,-1.673799999999999941e-02,-9.246000000000000746e-03,-1.610899999999999832e-02,-2.025899999999999923e-02,-2.085100000000000148e-02,-2.276500000000000051e-02,-2.203300000000000050e-02,-1.520400000000000050e-02,-1.777600000000000013e-02,-1.596900000000000056e-02,-8.496999999999999345e-03,-1.900400000000000006e-02,-1.269699999999999995e-02,-1.836700000000000138e-02,-1.612900000000000097e-02,-1.065800000000000081e-02,-1.475500000000000075e-02,-1.209900000000000038e-02,-4.379000000000000080e-03,-2.052000000000000005e-02,-1.413099999999999946e-02,-1.451299999999999986e-02,-6.224999999999999631e-03,-1.490799999999999938e-02,-2.026899999999999882e-02,-1.423199999999999986e-02,-2.246799999999999839e-02,-1.949199999999999891e-02,-1.747100000000000042e-02,-9.860000000000000708e-03,-1.786099999999999841e-02,-1.133100000000000079e-02,-2.130599999999999855e-02,-1.055000000000000035e-02,-2.198100000000000054e-02,-4.742999999999999820e-03,-2.054100000000000023e-02,-1.449499999999999920e-02,-1.659400000000000111e-02,-1.941800000000000123e-02,-1.369199999999999931e-02,-9.965999999999999165e-03,-7.414999999999999716e-03,-1.754800000000000110e-02,-1.557700000000000057e-02,-2.348700000000000093e-02,-1.110000000000000049e-02,-2.009000000000000022e-02,-1.295100000000000071e-02,-2.897999999999999968e-03,-1.731800000000000006e-02,-1.566599999999999937e-02,-1.131099999999999987e-02,-1.430000000000000021e-02,-7.422999999999999911e-03,-3.089499999999999885e-02,-2.268099999999999977e-02,-1.333400000000000037e-02,-2.461599999999999899e-02,-1.545499999999999999e-02,-1.576899999999999830e-02,-1.482200000000000011e-02,-1.262600000000000007e-02,-2.487599999999999881e-02,-7.035999999999999720e-03,-1.347800000000000040e-02,-1.626999999999999974e-02,-2.838999999999999944e-03,-2.386599999999999833e-02,-6.597000000000000433e-03,-1.089299999999999990e-02,-2.400199999999999903e-02,-1.461999999999999932e-02,-8.899999999999999925e-03,-1.724099999999999938e-02,-1.732200000000000059e-02,-1.414100000000000079e-02,-8.789999999999999203e-03,-9.244999999999999746e-03,-1.116299999999999931e-02,-1.816600000000000159e-02,-1.890400000000000066e-02,-1.416000000000000071e-02,-1.551800000000000054e-02,-5.775999999999999884e-03,-1.322300000000000038e-02,-1.269699999999999995e-02,-8.267000000000000043e-03,-1.020000000000000073e-02,-1.205200000000000021e-02,-4.649000000000000354e-03,-1.904600000000000043e-02,-1.468399999999999914e-02,-1.988200000000000037e-02,-1.891899999999999832e-02,-1.971099999999999935e-02,-6.279999999999999992e-03,-3.644999999999999803e-03,-1.905899999999999955e-02,-1.770100000000000146e-02,-1.799500000000000058e-02,-1.081400000000000070e-02,-1.132400000000000073e-02,-1.749600000000000113e-02,-2.455900000000000097e-02,-2.176300000000000109e-02,-1.981099999999999875e-02,-1.794600000000000015e-02,-1.214499999999999955e-02,-1.920799999999999938e-02,-1.032100000000000031e-02,-2.241100000000000037e-02,-1.560899999999999961e-02,-2.239800000000000124e-02,-1.407599999999999997e-02,-1.620399999999999965e-02,-1.153000000000000032e-02,-8.614000000000000129e-03,-1.405600000000000079e-02,-8.328999999999999598e-03,-1.421900000000000074e-02,-1.009099999999999928e-02,-1.064900000000000048e-02,-1.565499999999999878e-02,-1.864000000000000032e-02,-1.468200000000000061e-02,-2.326500000000000096e-02,-7.362999999999999753e-03,-1.634499999999999842e-02,-2.308100000000000082e-02,-1.513300000000000062e-02,-2.344100000000000003e-02,-1.589099999999999888e-02,-2.735999999999999890e-02,-2.484000000000000097e-02,-1.904199999999999990e-02,-1.724799999999999944e-02,-1.800399999999999917e-02,-1.773500000000000076e-02,-2.097600000000000159e-02,-6.385000000000000051e-03,-1.803499999999999895e-02,-7.702999999999999778e-03,-2.261700000000000169e-02,-2.770200000000000093e-02,-1.269099999999999916e-02,-2.043299999999999977e-02,-1.490900000000000038e-02,-2.690499999999999836e-02,-2.732199999999999906e-02,-8.283999999999999697e-03,-9.530999999999999542e-03,-2.011599999999999847e-02,-2.258900000000000144e-02,-2.686099999999999946e-02,-1.060999999999999964e-02,-4.235000000000000049e-03,-9.296000000000000443e-03,-1.552699999999999914e-02,-1.513399999999999988e-02,-1.757299999999999834e-02,-2.327500000000000055e-02,-1.877600000000000102e-02,-1.352100000000000003e-02,-2.157200000000000090e-02,-2.767100000000000115e-02,-1.077700000000000012e-02,-2.025400000000000117e-02,-1.695199999999999832e-02,-2.217500000000000027e-02,-1.407599999999999997e-02,-2.630499999999999852e-02,-1.923700000000000063e-02,-1.391399999999999929e-02,-2.471900000000000139e-02,-9.079000000000000264e-03,-1.626199999999999868e-02,-1.421099999999999967e-02,-1.633899999999999936e-02,-1.355699999999999961e-02,-1.092399999999999968e-02,-1.666000000000000120e-02,-1.307700000000000008e-02,-2.398899999999999991e-02,-9.832000000000000461e-03,-1.498000000000000026e-02,-1.619299999999999906e-02,-1.740299999999999833e-02,-2.025899999999999923e-02,-1.855700000000000058e-02,-1.934800000000000061e-02,-1.176299999999999915e-02,1.466999999999999988e-03,-1.688200000000000117e-02,-1.764399999999999996e-02,-1.176400000000000015e-02,-8.040000000000000271e-03,-1.542900000000000001e-02,-1.595600000000000143e-02,-1.913000000000000117e-02,-1.919600000000000126e-02,-9.235999999999999419e-03,-1.876099999999999990e-02,-2.711900000000000074e-02,-1.031999999999999931e-02,-1.672500000000000028e-02,-2.438399999999999943e-02,-1.217000000000000026e-02,-1.702100000000000141e-02,-1.337200000000000021e-02,-7.080000000000000356e-03,-2.167200000000000029e-02,-6.986000000000000022e-03,-8.189999999999999364e-03,-1.272599999999999947e-02,-1.156199999999999936e-02,-2.039300000000000140e-02,-8.680999999999999481e-03,-2.017000000000000043e-02,